SpectraSmart Spectrum 2.9.0.0
--------- Device Information -----------
Spectrum Name :  反射率_0
Saving Time :  2024/04/27 00:05:58
Spectro-Module Model Name : SE2030-DUVN
Spectro-Module Serial Number : OS361AC55029948
Wavelength Start : 200
Wavelength End : 1025
Wavelength Unit : Wavelength(nm)
Spectrum Unit : Reflectance(%)
-----------Spectrum Setting ------------
Integration Time : 20ms
Average : 10
Boxcar : 0
Background removal :  enabled
linearity correction :  enabled
SC :  disabled
Intensity correction :  disabled
DWT denoise :  enabled
savitzky-golay :  disabled
FFT :  disabled
Running average :  disabled
Kalman :  disabled
High pass :  disabled
---------------BEGIN--------------------
Wavelength(nm)             Reflectance(%)
200.29               0
200.75        44.43538
201.21        39.06995
201.67        34.49221
202.13         32.0693
202.58        31.61112
203.04        32.96934
203.50        35.98842
203.96        39.39729
204.42        42.06882
204.88        44.04673
205.34         45.0831
205.80        45.32078
206.26        44.93314
206.72        43.65485
207.18        42.20954
207.64         41.2552
208.10        40.80333
208.55        41.17087
209.01        41.59312
209.47        40.72239
209.93        38.72274
210.39        36.79493
210.85        35.99529
211.31        37.01477
211.77        40.42653
212.23        48.84715
212.69        70.02184
213.14        105.1069
213.60        101.3731
214.06        75.22069
214.52        58.73744
214.98        52.94904
215.44        52.42092
215.90        53.72102
216.36        55.94157
216.81        57.90676
217.27        59.52614
217.73        62.56386
218.19        65.46271
218.65        62.33927
219.11        54.16747
219.57        45.58377
220.02        41.46227
220.48        44.61089
220.94        54.88812
221.40        74.20271
221.86        101.4075
222.32        117.0838
222.77        106.1407
223.23        82.00566
223.69        59.91161
224.15        48.20325
224.61        44.55849
225.06        44.51451
225.52        45.66616
225.98        45.54356
226.44        43.83548
226.90        41.59356
227.36        39.18746
227.81        37.19939
228.27        36.05832
228.73        35.29594
229.19        35.12894
229.65        35.92546
230.10        37.52755
230.56        39.79998
231.02        41.89709
231.48         42.4186
231.93        41.19979
232.39        39.09637
232.85        37.02963
233.31        36.23518
233.77        36.87936
234.22        38.57205
234.68        40.82351
235.14        43.01467
235.60        44.89737
236.05        46.67527
236.51        48.33178
236.97        49.74807
237.43        50.83585
237.88        51.54266
238.34        51.86643
238.80        52.20154
239.26        52.80166
239.71        54.00863
240.17        55.92604
240.63        59.03592
241.08        63.62632
241.54        69.31047
242.00        76.34193
242.46        85.75477
242.91        99.55318
243.37        119.4284
243.83         146.525
244.28        171.7708
244.74        178.2894
245.20        163.3701
245.66        140.6293
246.11        123.5761
246.57        113.6374
247.03        107.2733
247.48        101.9308
247.94        94.91232
248.40        87.73729
248.85        82.36589
249.31        79.04079
249.77        76.54555
250.22        74.12061
250.68        71.12802
251.14        68.27821
251.59        68.32507
252.05        72.43827
252.51        79.21734
252.96        84.69984
253.42        86.03322
253.88        83.84406
254.33        79.40995
254.79        76.39896
255.25        77.63315
255.70        82.56243
256.16        89.75885
256.62         95.6055
257.07        94.88952
257.53        89.33862
257.99        82.41821
258.44        76.47202
258.90        73.66628
259.35        72.87795
259.81        73.39181
260.27         74.0647
260.72         73.6968
261.18        72.46709
261.63        70.52174
262.09        68.80731
262.55        67.71924
263.00        67.08297
263.46        66.83683
263.91        66.22525
264.37        64.69399
264.83        62.28744
265.28        59.37035
265.74         56.7906
266.19        55.24324
266.65        54.84609
267.11        55.17387
267.56        55.72905
268.02        55.73841
268.47         54.9702
268.93         53.7028
269.38        52.13123
269.84         50.6224
270.30        49.28683
270.75        48.00016
271.21        46.81016
271.66        45.73119
272.12        44.76508
272.57        43.92033
273.03        43.13634
273.48        42.27515
273.94        41.37002
274.39        40.41761
274.85        39.55662
275.31        38.83733
275.76        38.23569
276.22        37.75305
276.67        37.29156
277.13        36.81908
277.58        36.26709
278.04        35.68221
278.49        35.03877
278.95         34.4261
279.40        33.81206
279.86        33.25616
280.31        32.68387
280.77        32.10228
281.22        31.47922
281.68        30.89083
282.13        30.36781
282.59        30.03915
283.04        29.87947
283.50        29.87174
283.95        29.91899
284.41        29.88416
284.86         29.7324
285.32        29.53092
285.77        29.34537
286.22        29.33693
286.68        29.52556
287.13        29.81311
287.59        30.12565
288.04         30.3032
288.50        30.33075
288.95        30.22987
289.41        30.07462
289.86        29.89923
290.32        29.77154
290.77        29.67901
291.22        29.65767
291.68        29.74104
292.13        29.94006
292.59        30.29069
293.04        30.81541
293.50        31.55737
293.95        32.50663
294.40        33.64706
294.86        34.93578
295.31        36.29572
295.77        37.70396
296.22        39.14697
296.68        40.63958
297.13        42.19699
297.58        43.82829
298.04        45.52005
298.49        47.24599
298.95        48.99029
299.40        50.72918
299.85        52.47225
300.31        54.22749
300.76        55.98213
301.21         57.7467
301.67         59.5405
302.12        61.33741
302.58        63.18931
303.03        65.05459
303.48        66.95514
303.94        68.89687
304.39        70.81444
304.84           72.73
305.30        74.66586
305.75        76.59908
306.20        78.59207
306.66        80.65273
307.11        82.70541
307.57        84.70886
308.02        86.48896
308.47        88.04436
308.93        89.42795
309.38        90.70367
309.83        92.09595
310.29         93.6527
310.74         95.3046
311.19         96.9062
311.65        98.18807
312.10        99.06794
312.55        99.62952
313.00        100.0692
313.46        100.6955
313.91        101.5591
314.36        102.5998
314.82        103.6505
315.27        104.4568
315.72        104.9324
316.18        105.1896
316.63        105.3446
317.08        105.6294
317.53        106.1073
317.99         106.693
318.44        107.3083
318.89        107.7967
319.35        108.1074
319.80        108.2993
320.25        108.4308
320.70        108.5938
321.16        108.8186
321.61        109.1194
322.06        109.4503
322.51         109.749
322.97         109.984
323.42        110.1738
323.87        110.4101
324.32        110.8647
324.78        111.5181
325.23        112.3913
325.68        113.1966
326.13        113.4755
326.59        113.1375
327.04         112.357
327.49        111.5128
327.94        111.2379
328.39        111.6835
328.85        112.6306
329.30         113.859
329.75        114.6904
330.20        114.9018
330.66        114.6619
331.11        114.2657
331.56        114.1105
332.01        114.3321
332.46        114.7695
332.92        115.2638
333.37          115.73
333.82          116.05
334.27        116.3373
334.72        116.5766
335.17        116.7107
335.63         116.752
336.08        116.7605
336.53        116.9107
336.98        117.5504
337.43        118.7225
337.88        120.2843
338.34        121.9071
338.79        123.1596
339.24        123.8199
339.69         124.012
340.14        123.8412
340.59        123.5131
341.05        123.1825
341.50        122.8133
341.95        122.5566
342.40         122.635
342.85        123.0864
343.30        123.8631
343.75        124.8084
344.20         125.632
344.66        126.2281
345.11        126.6422
345.56        126.8962
346.01         127.054
346.46        127.1626
346.91         127.214
347.36        127.2507
347.81         127.355
348.26        127.5403
348.72        127.7817
349.17          128.07
349.62        128.4186
350.07        128.8024
350.52        129.2245
350.97        129.5188
351.42        129.4296
351.87        128.9293
352.32        128.0945
352.77        127.2277
353.22        126.7712
353.67        126.8034
354.13        127.2047
354.58         127.657
355.03        127.5839
355.48        126.8595
355.93        125.6673
356.38        124.4223
356.83        123.7425
357.28        123.7338
357.73        124.1725
358.18        124.6433
358.63        124.4844
359.08        123.5361
359.53        122.0344
359.98        120.3373
360.43        118.9587
360.88        118.0328
361.33        117.4082
361.78        116.8811
362.23          116.14
362.68        115.1167
363.13        113.9388
363.58        112.7811
364.03        111.8874
364.48        111.2953
364.93        110.8917
365.38        110.5089
365.83        109.8995
366.28        109.0027
366.73        107.9116
367.18        106.7462
367.63        105.6833
368.08        104.7837
368.53        104.0052
368.98        103.3059
369.43        102.6156
369.88        101.9107
370.33        101.2154
370.78        100.5596
371.23         99.9926
371.68        99.51482
372.13        99.08489
372.58        98.64649
373.03        98.11708
373.48        97.46889
373.93        96.72581
374.38        95.90466
374.83        95.04498
375.28        94.17368
375.72        93.26606
376.17        92.41947
376.62        91.66077
377.07        91.00939
377.52        90.49329
377.97        90.04224
378.42        89.55032
378.87        89.00069
379.32        88.38368
379.77        87.87026
380.22         87.7149
380.67        87.92093
381.11        88.43515
381.56        88.83797
382.01        88.52398
382.46        87.41666
382.91        85.78759
383.36        84.16524
383.81        83.27648
384.26         83.2346
384.71        83.78455
385.15        84.57151
385.60        84.97646
386.05         84.8039
386.50        84.24715
386.95        83.45163
387.40        82.64821
387.85        81.94566
388.29        81.22565
388.74        80.63243
389.19        80.16314
389.64        79.80923
390.09        79.58034
390.54        79.41238
390.98        79.16679
391.43        78.85187
391.88        78.47881
392.33        78.12399
392.78        77.86212
393.23        77.69415
393.67        77.66172
394.12         77.7188
394.57        77.39201
395.02        76.77502
395.47        76.48544
395.91        76.53785
396.36        76.39565
396.81        76.08606
397.26        75.95264
397.71        75.92899
398.15        75.78954
398.60        75.61108
399.05        75.21322
399.50        74.75746
399.95        74.88622
400.39        75.44831
400.84        75.36722
401.29         74.6316
401.74        74.16825
402.18        73.99178
402.63        73.39227
403.08        72.55836
403.53        72.17059
403.97         72.2789
404.42        72.63063
404.87        73.02303
405.32        73.15581
405.76        72.93581
406.21        72.55248
406.66         72.1179
407.11        71.71606
407.55        71.50515
408.00        71.57565
408.45        71.84637
408.90        72.18434
409.34        72.33964
409.79        71.79455
410.24        70.83072
410.68        70.39708
411.13        70.58266
411.58        70.88357
412.03        71.09692
412.47        71.10024
412.92        70.80433
413.37        70.30099
413.81        69.77491
414.26        69.55551
414.71        69.67639
415.15        70.06328
415.60        70.54608
416.05        70.90282
416.49        71.04669
416.94        71.03104
417.39        70.92281
417.83        70.80885
418.28        70.73337
418.73        70.67045
419.17        70.61655
419.62        70.57726
420.07        70.53847
420.51        70.47814
420.96         70.4498
421.41        70.42166
421.85        70.35848
422.30        70.47357
422.74        70.59262
423.19        70.25828
423.64        69.57501
424.08        69.30875
424.53        69.51006
424.98        69.63685
425.42        69.68161
425.87        70.08788
426.31        70.67004
426.76        70.65058
427.21        70.09619
427.65         69.7323
428.10        69.66939
428.54        69.66458
428.99        69.77969
429.44        69.93889
429.88        70.17478
430.33        70.83627
430.77        71.59979
431.22        71.90565
431.66        71.66666
432.11        70.97521
432.56        70.15433
433.00        69.94566
433.45        70.53522
433.89        71.38842
434.34        71.93163
434.78        72.98895
435.23        71.31705
435.67        69.85606
436.12        70.04076
436.57        70.41533
437.01        71.28822
437.46        71.58163
437.90         71.1336
438.35        70.75353
438.79         70.5655
439.24        70.53682
439.68         70.6749
440.13          71.008
440.57        71.49117
441.02        71.82185
441.46        71.93143
441.91        72.38349
442.35         72.8962
442.80        72.53904
443.24        71.56567
443.69        71.53165
444.13        72.35004
444.58         72.7273
445.02        72.58022
445.47        72.56493
445.91        72.74245
446.36        72.95173
446.80        73.17057
447.24        73.47159
447.69        73.76343
448.13         73.7361
448.58         73.4771
449.02        73.40343
449.47        73.54249
449.91        73.55706
450.36        73.47401
450.80        73.48006
451.25        73.59084
451.69        73.66455
452.13        73.70221
452.58        73.73279
453.02         73.7414
453.47        73.71232
453.91        73.63657
454.36        73.52443
454.80        73.38221
455.24        73.16272
455.69        72.87881
456.13        72.66264
456.58        72.58934
457.02        72.12505
457.46        71.85659
457.91         72.0623
458.35        72.59543
458.79        72.54047
459.24        71.90246
459.68        71.06178
460.13        70.34373
460.57        70.03259
461.01        70.25764
461.46        70.56397
461.90        71.26061
462.34        71.77299
462.79        71.43059
463.23        71.44053
463.68        71.52773
464.12        71.44901
464.56        71.11507
465.01         70.4087
465.45        69.52342
465.89         69.2452
466.34        69.49996
466.78         69.6757
467.22        69.71956
467.67        69.45429
468.11        69.52104
468.55        69.54607
468.99        69.64588
469.44        69.52859
469.88         69.2012
470.32        68.84219
470.77        68.54393
471.21        68.38398
471.65        68.38153
472.10        68.51899
472.54        68.70631
472.98        68.78779
473.42        68.71922
473.87        68.62099
474.31        68.46242
474.75        68.12329
475.20        67.76099
475.64        67.54168
476.08        68.02446
476.52        67.95636
476.97        67.40875
477.41        67.39011
477.85        67.88872
478.29        66.46587
478.74        68.04458
479.18        68.13186
479.62        67.86976
480.06        67.79145
480.50        67.81244
480.95        67.73595
481.39        67.56242
481.83        67.26566
482.27        67.22867
482.72        67.53355
483.16        67.51763
483.60        67.50131
484.04        67.68805
484.48        67.72015
484.93        67.60095
485.37        67.64429
485.81        67.20872
486.25        66.54826
486.69        68.33652
487.14        68.45186
487.58        67.38304
488.02        67.74634
488.46        66.44555
488.90        66.47128
489.34        68.07527
489.79        68.68608
490.23        68.24142
490.67        67.47778
491.11        66.71854
491.55        66.59827
491.99        67.02696
492.43        67.00713
492.88        66.51771
493.32        66.32729
493.76        66.47662
494.20        66.59354
494.64        66.64928
495.08        66.77496
495.52        66.92232
495.96        66.92625
496.41        66.79678
496.85        66.76763
497.29        66.73086
497.73        66.68334
498.17        65.88017
498.61        65.84349
499.05        66.26791
499.49        66.51681
499.93        66.30577
500.37         66.3516
500.82        66.56619
501.26         66.5793
501.70        66.43108
502.14        66.46867
502.58        66.68371
503.02        66.80423
503.46        66.81565
503.90        66.87232
504.34        66.94134
504.78        66.88821
505.22        66.69513
505.66        66.44447
506.10         66.2354
506.54        66.02415
506.98        65.79794
507.42        66.11003
507.86        66.29749
508.30        65.87196
508.74        66.23091
509.18        66.11679
509.62        66.02892
510.06        65.96835
510.50        65.96362
510.94        65.97153
511.38        65.97963
511.82        66.01595
512.26         66.0736
512.70        66.15093
513.14        66.22177
513.58        66.23994
514.02        66.19994
514.46         66.1178
514.90        66.03086
515.34        66.00157
515.78        66.04243
516.22        66.12757
516.66        66.23027
517.10          66.307
517.54        66.34123
517.98        66.34934
518.42        66.32196
518.86        66.24505
519.30        66.12672
519.74        65.97111
520.18        65.82042
520.62        65.76465
521.06        65.82446
521.50        65.93797
521.93        66.04152
522.37        66.25245
522.81        66.16175
523.25        66.10456
523.69         66.0247
524.13        66.02815
524.57        66.12704
525.01        66.28554
525.45          66.437
525.89        66.46641
526.32        66.34407
526.76        66.13136
527.20        65.88603
527.64        65.70187
528.08        65.61028
528.52        65.58485
528.96        65.61005
529.40        65.66105
529.83         65.7203
530.27        65.80016
530.71        65.87989
531.15        65.93231
531.59        65.94985
532.03        65.93004
532.46        65.87383
532.90        65.83369
533.34        65.80984
533.78        65.75807
534.22        65.67529
534.66        65.63661
535.09        65.59567
535.53        65.40516
535.97        65.11012
536.41        64.95086
536.85        64.94831
537.28        64.97703
537.72        65.02301
538.16        65.11122
538.60        65.22536
539.04        65.35825
539.47        65.45934
539.91        65.49525
540.35        65.44734
540.79        65.32788
541.22        65.19192
541.66        65.15164
542.10        65.21877
542.54        65.35957
542.97        65.49517
543.41        65.53183
543.85        65.44077
544.29        65.26928
544.72        65.06513
545.16        64.94068
545.60        64.91399
546.04        64.95734
546.47        65.05601
546.91        65.20346
547.35        65.37991
547.79        65.51608
548.22        65.58747
548.66        65.71178
549.10        65.87099
549.53        65.65931
549.97        65.19945
550.41        64.89195
550.84        64.85269
551.28        65.02776
551.72        65.29489
552.15        65.47911
552.59        65.60898
553.03        65.21659
553.46        65.50033
553.90        65.39674
554.34        65.23598
554.77        65.20505
555.21        65.38047
555.65        64.94434
556.08        65.32336
556.52        65.32069
556.96        65.32962
557.39         65.4331
557.83        65.57686
558.27        65.37708
558.70        64.91582
559.14         64.7615
559.57        64.90466
560.01          64.986
560.45        64.97052
560.88         65.0479
561.32        65.21577
561.75        65.26636
562.19        65.24522
562.63        65.29276
563.06        65.40031
563.50        65.50189
563.93        65.50957
564.37        65.48323
564.80        65.45094
565.24        65.26354
565.68        64.82958
566.11        65.43992
566.55        64.76656
566.98        64.64851
567.42        64.53399
567.85        64.79576
568.29        65.33762
568.72        65.66481
569.16        65.83156
569.60        65.87361
570.03        66.00008
570.47        66.12374
570.90        66.35503
571.34        65.57447
571.77        65.86167
572.21        66.15159
572.64        65.75869
573.08        66.25339
573.51        65.55319
573.95        65.69707
574.38        66.06742
574.82        66.09337
575.25        65.74519
575.69        65.88494
576.12        65.80614
576.56        65.39732
576.99        65.79462
577.42         65.8905
577.86        65.73798
578.29        66.56895
578.73        66.24081
579.16        66.13554
579.60        65.66335
580.03        65.71905
580.47        65.37718
580.90        66.43491
581.33         66.0948
581.77        66.53043
582.20         66.1055
582.64        66.36085
583.07        66.12045
583.51        65.90941
583.94        65.72171
584.37        65.75346
584.81        66.04565
585.24        66.19864
585.68        66.15526
586.11        65.95076
586.54         66.1048
586.98        65.25897
587.41        64.84673
587.85        65.51106
588.28        65.59991
588.71        65.14941
589.15        65.23344
589.58        65.48561
590.01        65.36154
590.45         65.0631
590.88        66.06259
591.31        65.90029
591.75        65.29272
592.18        64.87143
592.61        64.78421
593.05        65.78758
593.48        66.37414
593.91          66.063
594.35        65.78918
594.78        65.09058
595.21         64.8296
595.65        65.26976
596.08         66.5289
596.51        65.97398
596.94         65.7308
597.38        65.30646
597.81         65.3011
598.24        66.18385
598.68        65.82854
599.11        65.28172
599.54        66.75024
599.97        66.05966
600.41        65.78738
600.84        65.18892
601.27        65.79215
601.70        65.37391
602.14        65.80623
602.57        65.52763
603.00        65.23174
603.43        64.86077
603.87        65.72952
604.30        65.92415
604.73        65.86605
605.16        65.23996
605.60        65.16653
606.03        64.80765
606.46        64.53045
606.89        64.59885
607.32        65.28309
607.76        64.87302
608.19        65.33289
608.62        65.22038
609.05        65.21896
609.48        65.24091
609.92        66.13247
610.35        65.58161
610.78        65.39185
611.21        64.76121
611.64        65.20975
612.07        65.38445
612.50        65.22515
612.94        65.18507
613.37         65.1127
613.80         64.9977
614.23        64.50698
614.66        64.25812
615.09        64.93892
615.52         65.1104
615.96        64.93855
616.39        64.99079
616.82        65.32066
617.25         64.7618
617.68        64.74881
618.11        64.82783
618.54        65.26589
618.97        65.34941
619.40        65.15144
619.84        64.62069
620.27        64.95276
620.70        64.96809
621.13        64.95268
621.56        64.50967
621.99        63.72997
622.42        63.79659
622.85        64.13258
623.28         63.9289
623.71        63.95589
624.14        64.37416
624.57        64.69785
625.00         64.3364
625.43        64.66424
625.86        64.50118
626.29        64.38912
626.72        64.02572
627.15        64.28207
627.58          64.322
628.01        64.22593
628.44        64.61275
628.87        64.37223
629.30        64.04731
629.73        63.83384
630.16        64.33927
630.59        64.02187
631.02        64.27313
631.45        64.54875
631.88        64.70422
632.31        64.67536
632.74        64.76134
633.17        64.57384
633.60        64.46004
634.03         64.3203
634.46        64.16032
634.89        63.99659
635.32        63.88255
635.75        63.83721
636.18        63.77791
636.61        63.73373
637.04        63.78022
637.47        63.90506
637.89        64.10391
638.32        64.29651
638.75          64.317
639.18        64.12301
639.61        64.13761
640.04        63.75925
640.47        63.67456
640.90        63.71259
641.33        63.85437
641.76        64.02236
642.18         64.1062
642.61        64.06049
643.04        63.92627
643.47         63.7665
643.90        63.67962
644.33        63.68991
644.76        63.76242
645.18        63.85299
645.61        63.87458
646.04        63.81385
646.47        63.70767
646.90        63.59251
647.33        63.50827
647.75        63.44536
648.18        63.45845
648.61        63.56918
649.04        63.54509
649.47        63.32345
649.89        63.97115
650.32        63.75201
650.75        63.74075
651.18        63.50619
651.61        63.56689
652.03        63.92462
652.46        63.97538
652.89        63.72517
653.32        63.82922
653.74        64.35561
654.17        63.57701
654.60        64.03168
655.03        63.60862
655.46        63.16114
655.88        63.43205
656.31        66.26793
656.74        67.85254
657.16        67.07974
657.59        66.62576
658.02        64.77599
658.45        64.89473
658.87        64.49811
659.30        64.39182
659.73        63.98526
660.15        64.73355
660.58        63.71838
661.01        63.68212
661.44        63.76627
661.86        63.51315
662.29        62.94364
662.72         63.3642
663.14        63.50543
663.57        63.53889
664.00        63.19866
664.42        63.22226
664.85        63.62751
665.27        64.02628
665.70        64.26122
666.13        64.31458
666.55        64.16219
666.98        63.74921
667.41        63.19957
667.83        63.12704
668.26        62.93299
668.69          63.092
669.11        63.33779
669.54         63.5498
669.96        63.68221
670.39        63.76289
670.82        63.81586
671.24        63.84858
671.67        63.86654
672.09        63.84988
672.52        63.80722
672.94        63.71796
673.37        63.59364
673.80         63.4386
674.22        63.30848
674.65        63.25563
675.07        63.30873
675.50        63.44025
675.92        63.58517
676.35        63.62513
676.77        63.53744
677.20        63.35323
677.62        63.15393
678.05        63.07186
678.47         63.1339
678.90        63.30032
679.32        63.49041
679.75        63.59008
680.17        63.56641
680.60        63.46112
681.02        63.33291
681.45        63.27911
681.87        63.33869
682.30        63.43655
682.72        63.54916
683.15        63.68234
683.57         63.7916
684.00        63.70207
684.42        63.49843
684.85        63.48332
685.27        63.67462
685.70         63.9298
686.12        64.15449
686.54        64.27257
686.97        64.24973
687.39        64.11642
687.82        63.93195
688.24        63.81169
688.66        63.78607
689.09         63.8253
689.51        63.89665
689.94         63.9157
690.36        63.87018
690.78        63.77346
691.21        63.68392
691.63        63.68231
692.06        63.78607
692.48        63.97664
692.90        64.15894
693.33        64.18794
693.75        64.03536
694.17        63.71994
694.60        63.39153
695.02        63.29917
695.44        63.46395
695.87        63.82193
696.29        64.21722
696.71         64.1811
697.14        63.78302
697.56         63.6251
697.98         63.7599
698.41        63.79694
698.83        63.73559
699.25        63.86977
699.68        64.10399
700.10        64.19153
700.52        64.07883
700.94        63.85291
701.37        63.62413
701.79        63.57407
702.21        63.73336
702.64        64.02412
703.06        64.34245
703.48        64.50255
703.90        64.45735
704.33        64.27631
704.75         64.0313
705.17        63.82765
705.59        63.70938
706.01         63.6394
706.44        63.63984
706.86        63.74667
707.28        63.93398
707.70        64.24194
708.12        64.57907
708.55        64.66089
708.97        64.51711
709.39        64.46612
709.81        64.52657
710.23        64.48859
710.66         64.3601
711.08        64.30176
711.50        64.30226
711.92        64.28144
712.34        64.23837
712.76        64.21232
713.19        64.18611
713.61        64.16464
714.03        64.13747
714.45        64.10267
714.87        64.10374
715.29        64.21413
715.71        64.43385
716.13        64.72562
716.56        64.99084
716.98         65.1503
717.40        65.13826
717.82        64.99332
718.24        64.76437
718.66        64.53207
719.08        64.34309
719.50        64.19527
719.92        64.11105
720.34        64.11845
720.76        64.21413
721.19        64.36816
721.61        64.58324
722.03        64.81053
722.45        65.01613
722.87         65.1913
723.29        65.28352
723.71        65.21838
724.13        64.99632
724.55        64.65508
724.97        64.28445
725.39        64.03209
725.81        63.94521
726.23        63.97995
726.65        64.09559
727.07        64.30598
727.49        64.43834
727.91        64.61844
728.33        64.79646
728.75         64.9641
729.17        65.10724
729.59        65.20712
730.01        65.25302
730.43        65.23909
730.85         65.1713
731.27         65.0551
731.69        64.89143
732.10        64.75118
732.52        64.66102
732.94        64.49153
733.36        64.24319
733.78        64.53564
734.20        64.19392
734.62        64.37312
735.04        64.75738
735.46        64.31979
735.88        64.97298
736.30        64.77955
736.72        65.04194
737.13        65.16371
737.55        65.31789
737.97        65.56955
738.39        65.80966
738.81        65.69836
739.23        65.30794
739.65        65.19753
740.06        65.36318
740.48        65.42533
740.90        65.36074
741.32        65.43159
741.74         65.6254
742.16         65.7688
742.57           65.84
742.99        65.86993
743.41        65.86332
743.83        65.80904
744.25        65.71416
744.67        65.57267
745.08        65.43935
745.50         65.3804
745.92        65.42023
746.34        65.54069
746.75        65.68116
747.17        65.72659
747.59        65.65717
748.01        65.50504
748.42        65.33816
748.84        65.26547
749.26        65.30946
749.68        65.43015
750.09        65.56487
750.51         65.6109
750.93        65.54691
751.35        65.43833
751.76        65.29853
752.18        65.13924
752.60        64.97385
753.01        64.82326
753.43        64.70547
753.85        64.67178
754.27        64.73521
754.68        64.89508
755.10        65.10474
755.52        65.25873
755.93        65.35505
756.35        65.36968
756.77        65.39462
757.18        65.39165
757.60        65.35389
758.02         65.6355
758.43        66.15918
758.85        65.33359
759.26        65.26714
759.68        64.95882
760.10        65.07869
760.51        65.28123
760.93        65.49943
761.34        65.76902
761.76          66.011
762.18        66.09122
762.59        66.07118
763.01        66.12781
763.42        66.32666
763.84          66.367
764.26        66.25487
764.67        66.25258
765.09        66.32566
765.50        65.97604
765.92        65.38069
766.33        65.18525
766.75        65.32564
767.16        65.34526
767.58          65.175
768.00        65.02596
768.41        65.02183
768.83        65.37226
769.24        65.91677
769.66        66.21902
770.07        66.19569
770.49        65.78056
770.90        65.24364
771.32         65.5505
771.73        66.53028
772.15        66.84064
772.56        66.40795
772.97        65.99609
773.39        65.76776
773.80        65.63622
774.22        65.62931
774.63        65.81985
775.05        66.06481
775.46        66.19805
775.88        66.14414
776.29        65.97436
776.70        65.78203
777.12        65.74381
777.53        65.90917
777.95        66.17718
778.36        66.47366
778.77        66.64198
779.19        66.65377
779.60        66.57631
780.02        66.43162
780.43        66.32585
780.84        66.31911
781.26        66.10863
781.67        65.80888
782.09        66.23083
782.50        67.16968
782.91         66.9019
783.33        66.34238
783.74        66.02229
784.15        66.24908
784.57        66.29111
784.98        66.17458
785.39        66.24261
785.81        66.48762
786.22        66.82245
786.63          67.146
787.04        67.29832
787.46        67.26196
787.87        67.07343
788.28        66.84619
788.70        66.73437
789.11        66.75558
789.52        66.88964
789.93        67.07034
790.35         67.1776
790.76        67.18659
791.17        67.12362
791.58        67.04302
792.00        66.97361
792.41         66.9418
792.82         67.0403
793.23        67.18657
793.65        67.00753
794.06        66.66093
794.47        66.76971
794.88          67.167
795.29        67.64225
795.71        67.10085
796.12         66.8231
796.53        66.64849
796.94        66.66731
797.35        66.92197
797.76        67.40187
798.18        67.91932
798.59        68.18301
799.00        68.09817
799.41        67.74486
799.82        67.29209
800.23        67.02872
800.64        67.03355
801.06        67.19228
801.47        67.42997
801.88        67.52887
802.29         67.4248
802.70        67.19182
803.11        66.90979
803.52        66.70037
803.93        66.61906
804.34        66.63026
804.75        66.70752
805.17        66.85364
805.58        67.09331
805.99        67.23737
806.40        67.30311
806.81        67.74381
807.22        68.34836
807.63        68.12596
808.04         67.2625
808.45        66.93083
808.86        67.23671
809.27        67.57379
809.68        67.78571
810.09        67.88087
810.50        67.80327
810.91        67.55717
811.32        67.28983
811.73         67.2352
812.14        67.44241
812.55        67.84098
812.96        68.27625
813.37        68.45621
813.78        68.29544
814.19        67.90833
814.60        67.43046
815.01        67.03653
815.42        66.77619
815.83        66.59571
816.24        66.49513
816.65        66.47932
817.05        66.54939
817.46        66.69317
817.87        66.87932
818.28        67.00261
818.69        67.04025
819.10        66.99371
819.51        66.94707
819.92         67.0617
820.33        67.36031
820.74         67.7784
821.14        68.17356
821.55        68.31596
821.96        68.16153
822.37        67.79295
822.78        67.34332
823.19        67.03828
823.60        66.95782
824.00        67.06167
824.41        67.25465
824.82        67.47233
825.23        67.65894
825.64        67.83301
826.04        67.96684
826.45        67.97266
826.86        67.85793
827.27        67.65306
827.68        67.39777
828.08        67.19841
828.49        67.04426
828.90        66.92251
829.31        66.89468
829.72        67.05459
830.12         67.4198
830.53        67.91188
830.94         68.3394
831.35         68.3279
831.75        67.82231
832.16        66.92428
832.57        65.95505
832.97        65.40653
833.38        65.40727
833.79        65.79823
834.20        66.38784
834.60        66.86332
835.01        67.12348
835.42         67.3001
835.82         67.4194
836.23         67.4475
836.64        67.42796
837.04        67.30626
837.45        67.23578
837.86        67.54688
838.26        68.30156
838.67        69.37406
839.08         70.3904
839.48        70.63528
839.89        69.94422
840.29        68.58002
840.70         67.1526
841.11        66.36202
841.51        66.38219
841.92        66.99212
842.33        67.90293
842.73        68.59112
843.14        68.76169
843.54        68.61745
843.95        68.33546
844.35         68.2524
844.76        68.43533
845.17        68.75643
845.57        69.05885
845.98        69.07739
846.38        68.77641
846.79        68.25791
847.19         67.6987
847.60        67.34395
848.00        67.27824
848.41        67.40559
848.81        67.64907
849.22        67.79878
849.62        67.83009
850.03        67.79005
850.43        67.74224
850.84        67.72169
851.24        67.78664
851.65        67.84218
852.05        67.96901
852.46        68.20374
852.86        68.52949
853.27        68.92446
853.67        69.19917
854.07        69.20078
854.48        68.88937
854.88        68.34286
855.29        67.67253
855.69         67.2191
856.10        67.03304
856.50        67.11354
856.90        67.31644
857.31        67.40897
857.71        67.36673
858.12        67.18336
858.52        66.99341
858.92        66.90821
859.33        66.94575
859.73        67.11411
860.13        67.25499
860.54        67.13906
860.94        66.76946
861.34        66.20302
861.75        65.67194
862.15        65.59215
862.55        66.02509
862.96        66.80898
863.36         67.6859
863.76        68.13335
864.17        67.98618
864.57        67.42536
864.97        66.63948
865.38        65.93376
865.78        65.45455
866.18        65.13123
866.58        64.95542
866.99        64.91293
867.39        65.00775
867.79         65.2428
868.19        65.61366
868.60         66.0743
869.00        66.61787
869.40        67.20737
869.80        67.72427
870.21        67.95829
870.61        67.91568
871.01        67.62873
871.41        67.21263
871.81         66.8353
872.22        66.54188
872.62        66.27698
873.02        66.11146
873.42        66.14427
873.82        66.37033
874.22        66.77383
874.63        67.13291
875.03        67.10614
875.43        66.62956
875.83        65.81313
876.23        64.96123
876.63        64.55378
877.03        64.69916
877.44        65.22886
877.84        65.90053
878.24        66.30379
878.64        66.26517
879.04        65.78738
879.44        65.14334
879.84         64.8499
880.24        64.98986
880.64        65.36381
881.04        65.71752
881.44        65.67828
881.84        65.16654
882.24        64.33328
882.65          63.484
883.05        63.06912
883.45        63.20857
883.85        63.78358
884.25        64.54066
884.65        65.04671
885.05        65.17005
885.45         65.0257
885.85        64.83803
886.25        64.95715
886.65        65.44822
887.05        66.17255
887.45        66.88863
887.85        67.20982
888.25        67.03515
888.65         66.5031
889.04        65.82898
889.44         65.3691
889.84        65.21042
890.24         65.2507
890.64        65.37547
891.04        65.39693
891.44        65.26321
891.84        65.06355
892.24        64.85117
892.64        64.68556
893.04        64.59834
893.44        64.57088
893.83        64.63718
894.23         64.8068
894.63        65.09126
895.03        65.46577
895.43        65.88883
895.83        66.29704
896.23        66.63868
896.63        66.88192
897.02        66.98986
897.42        66.94391
897.82         66.7495
898.22        66.46006
898.62        66.07392
899.01        65.57291
899.41        65.01223
899.81        64.40673
900.21        63.93099
900.61         63.8614
901.00         64.2234
901.40        64.90451
901.80        65.63539
902.20        65.97237
902.59        65.82251
902.99        65.33321
903.39        64.69123
903.79        64.21132
904.18        64.00328
904.58        63.96145
904.98        64.13011
905.38        64.59095
905.77        65.30732
906.17        66.27306
906.57        67.18854
906.96        67.54218
907.36        67.21352
907.76        66.35195
908.15         65.3867
908.55        64.99915
908.95        65.35951
909.34        66.27741
909.74         67.3306
910.14        67.89401
910.53        67.76039
910.93         67.1634
911.33        66.33962
911.72        65.63266
912.12        65.23034
912.52        65.02558
912.91        64.96486
913.31        64.99953
913.70        65.09849
914.10         65.2533
914.49         65.5405
914.89        65.98148
915.29         66.5679
915.68        67.26925
916.08        67.81791
916.47        67.86205
916.87        67.36681
917.26        66.43389
917.66         65.4845
918.05        65.01072
918.45        65.12041
918.84        65.71935
919.24         66.4536
919.64         66.8225
920.03        66.69049
920.42        66.18352
920.82         65.6321
921.21        65.49295
921.61        65.85191
922.00        66.58421
922.40        67.37752
922.79        67.82792
923.19        67.77795
923.58        67.40688
923.98        66.91977
924.37        66.55193
924.77        66.39144
925.16        66.29468
925.55        66.28033
925.95        66.36859
926.34        66.54443
926.74        66.81085
927.13        66.94221
927.52        66.50195
927.92        65.51249
928.31         64.1292
928.70        62.81359
929.10        62.24205
929.49        62.54015
929.89        63.45587
930.28        64.71948
930.67        65.72928
931.07         66.2286
931.46          66.453
931.85        66.36665
932.24        65.98381
932.64        65.42645
933.03        64.64289
933.42        64.00589
933.82        64.06796
934.21        64.90813
934.60        66.43896
934.99         68.1515
935.39         69.0909
935.78        69.02364
936.17        68.10323
936.56        66.88136
936.96         66.2552
937.35        66.43549
937.74        67.14129
938.13        67.86518
938.53        67.82275
938.92        66.87486
939.31        65.39222
939.70        63.83939
940.09        62.84038
940.49        62.53608
940.88        62.74762
941.27        63.34568
941.66        64.08545
942.05         64.8163
942.44        65.60214
942.84        66.31844
943.23        66.75761
943.62        66.88937
944.01        66.69711
944.40        66.36777
944.79        66.26437
945.18        66.45956
945.57        66.85168
945.97        67.17677
946.36        67.07853
946.75        66.44643
947.14         65.4911
947.53        64.45901
947.92         63.6687
948.31        63.22424
948.70        63.04261
949.09        63.10252
949.48        63.36869
949.87        63.78656
950.26         64.3363
950.65        64.92803
951.04        65.41331
951.43        65.71997
951.82        65.84432
952.21        65.76743
952.60        65.48753
952.99        65.06646
953.38        64.57681
953.77        64.12637
954.16        63.87822
954.55        63.86617
954.94        64.00294
955.33        64.32773
955.72        64.88365
956.11        65.60886
956.50        66.48713
956.89         67.1174
957.28        66.85162
957.66        65.61111
958.05        63.67845
958.44        61.72761
958.83         60.7216
959.22        60.84422
959.61        61.84649
960.00        63.20537
960.39        63.92321
960.78        63.67905
961.16        62.78037
961.55        61.72749
961.94        61.17141
962.33        61.29054
962.72        61.89777
963.11        62.72736
963.49        63.32076
963.88        63.41826
964.27        63.15733
964.66        62.86163
965.04        63.03043
965.43          63.711
965.82        64.80936
966.21        65.81992
966.60        65.80761
966.98        64.56439
967.37        62.53662
967.76        60.54813
968.15        59.61943
968.53        59.93042
968.92        61.22581
969.31        62.93469
969.69        63.89228
970.08        63.63484
970.47        62.56087
970.86        61.38508
971.24        61.12904
971.63        62.00741
972.02        63.68939
972.40        65.65298
972.79        66.60952
973.17        66.20303
973.56        64.91275
973.95        63.32278
974.33        62.15405
974.72        61.59765
975.11        61.37842
975.49        61.47718
975.88        61.80645
976.26        62.33345
976.65        63.09883
977.04        63.82298
977.42        64.01021
977.81        63.55169
978.19        62.51424
978.58        61.49242
978.96        61.44611
979.35        62.54879
979.74        64.56506
980.12        66.78033
980.51        67.66405
980.89         66.9618
981.28        65.16027
981.66        63.16261
982.05        62.23283
982.43        62.66719
982.82         64.0418
983.20         65.9851
983.59        67.67241
983.97        68.79587
984.35        69.56997
984.74        69.81965
985.12        69.51495
985.51        68.67937
985.89        67.32745
986.28        65.99996
986.66        65.46204
987.04          65.929
987.43        67.22775
987.81        68.84698
988.20        69.61749
988.58         69.1824
988.96         67.7671
989.35        66.02312
989.73        64.88845
990.12        64.56095
990.50        64.84837
990.88        65.14429
991.27        64.43636
991.65        62.59274
992.03        60.07311
992.42         57.8541
992.80        57.21297
993.18        58.38717
993.56        61.02803
993.95        64.17381
994.33        66.09827
994.71        66.06551
995.10        64.67436
995.48        62.84694
995.86        62.06124
996.24        62.70216
996.63        64.19682
997.01        66.24033
997.39        67.83761
997.77        68.48632
998.15        68.60416
998.54        68.19083
998.92        67.08347
999.30         65.5145
999.68        63.55719
1000.06        61.94029
1000.45        61.70663
1000.83        63.11203
1001.21        65.97209
1001.59        69.53098
1001.97        71.82953
1002.35        72.05959
1002.73        70.81577
1003.12        69.02321
1003.50        67.78236
1003.88        67.50669
1004.26        67.70679
1004.64         68.4501
1005.02        69.83067
1005.40        71.63404
1005.78        73.92197
1006.16        75.69315
1006.54        75.35065
1006.92        72.82127
1007.30        68.70903
1007.69        64.57979
1008.07        62.50116
1008.45        63.07386
1008.83        65.81353
1009.21        69.72327
1009.59        72.25961
1009.97        72.17819
1010.35        70.27357
1010.73        67.41995
1011.11        64.87406
1011.49        63.12884
1011.86        61.79111
1012.24        61.00846
1012.62        61.01046
1013.00        61.75631
1013.38        63.30272
1013.76        65.26464
1014.14         66.5076
1014.52        66.48064
1014.90        65.39426
1015.28        63.81494
1015.66        62.61179
1016.04        62.02742
1016.41        61.86895
1016.79        61.98141
1017.17        62.14544
1017.55        62.25451
1017.93        62.37644
1018.31        62.60147
1018.69        63.04592
1019.06         63.7276
1019.44        64.59013
1019.82        65.30257
1020.20        65.18255
1020.58        64.06763
1020.95        62.24609
1021.33        60.48265
1021.71        59.44609
1022.09         59.2601
1022.46        59.93699
1022.84        61.11763
1023.22        61.91765
1023.60        61.92938
1023.97        61.13912
1024.35        60.68637
1024.73        61.89532
