SpectraSmart Spectrum 2.9.0.0
--------- Device Information -----------
Spectrum Name :  反射率_0
Saving Time :  2024/04/26 23:49:38
Spectro-Module Model Name : SE2030-DUVN
Spectro-Module Serial Number : OS361AC55029948
Wavelength Start : 200
Wavelength End : 1025
Wavelength Unit : Wavelength(nm)
Spectrum Unit : Reflectance(%)
-----------Spectrum Setting ------------
Integration Time : 20ms
Average : 10
Boxcar : 0
Background removal :  enabled
linearity correction :  enabled
SC :  disabled
Intensity correction :  disabled
DWT denoise :  enabled
savitzky-golay :  disabled
FFT :  disabled
Running average :  disabled
Kalman :  disabled
High pass :  disabled
---------------BEGIN--------------------
Wavelength(nm)             Reflectance(%)
200.29               0
200.75        52.97261
201.21        49.08605
201.67        46.17682
202.13        43.90042
202.58        41.81941
203.04        40.09158
203.50        39.30015
203.96        40.78652
204.42        45.27091
204.88        52.46013
205.34        59.82045
205.80        63.09441
206.26        61.37223
206.72        56.12552
207.18        50.64868
207.64        47.71969
208.10        47.50345
208.55        50.03268
209.01        54.03301
209.47        54.95546
209.93         51.3561
210.39          46.573
210.85        43.77232
211.31        44.72239
211.77        50.21764
212.23        64.24955
212.69        99.10327
213.14        152.7773
213.60        140.6206
214.06        95.65125
214.52        68.48253
214.98        58.45053
215.44        56.63509
215.90        57.98323
216.36        61.09794
216.81        64.44552
217.27        67.78122
217.73        73.22456
218.19        79.18803
218.65        77.81339
219.11        68.93008
219.57        58.49463
220.02        52.32475
220.48        53.42487
220.94        61.13988
221.40        76.54721
221.86        98.94691
222.32         112.944
222.77        105.7683
223.23        87.94431
223.69        70.72371
224.15          60.321
224.61        55.40555
225.06        52.77245
225.52         51.6348
225.98        51.03474
226.44        50.62013
226.90        50.86974
227.36        50.90309
227.81        49.26561
228.27        46.18415
228.73         42.1306
229.19        38.95539
229.65         38.8143
230.10        41.57611
230.56        46.42705
231.02        51.13299
231.48        52.11573
231.93        48.94518
232.39        43.50648
232.85        38.12801
233.31        35.76409
233.77        36.72728
234.22        39.94055
234.68        44.01579
235.14        46.89228
235.60         47.9136
236.05        47.77222
236.51         46.9486
236.97        46.43714
237.43        46.72332
237.88        47.38446
238.34        48.44645
238.80         50.3566
239.26         53.3843
239.71        58.36981
240.17        64.76115
240.63        70.52814
241.08          74.248
241.54        74.93708
242.00        75.03587
242.46        80.54347
242.91        95.97222
243.37        124.7768
243.83        167.9439
244.28        205.5234
244.74        208.2844
245.20         175.882
245.66         135.833
246.11         113.737
246.57        110.4157
247.03        118.1217
247.48         127.973
247.94        125.7277
248.40        112.6729
248.85        97.80434
249.31         86.5601
249.77        80.73244
250.22        79.13587
250.68        79.94629
251.14        82.31074
251.59        83.90308
252.05        83.55112
252.51        82.92502
252.96        81.41893
253.42        78.87943
253.88        75.57406
254.33        71.28179
254.79        68.69859
255.25        69.79563
255.70        73.94002
256.16        80.21212
256.62        84.95358
257.07        83.03915
257.53         76.5168
257.99        68.89281
258.44        62.90422
258.90        60.94149
259.35        61.69316
259.81        64.05027
260.27        66.33429
260.72         66.5827
261.18        64.99077
261.63         62.2327
262.09        59.63844
262.55        58.03379
263.00        57.31151
263.46        57.20731
263.91        56.93876
264.37        55.87048
264.83        53.98367
265.28        51.61977
265.74        49.54162
266.19        48.37709
266.65        48.21965
267.11        48.67633
267.56        49.23278
268.02        49.08915
268.47        48.05649
268.93        46.46564
269.38        44.63141
269.84        43.08584
270.30        41.97449
270.75        41.10863
271.21        40.47226
271.66        39.98964
272.12        39.59977
272.57        39.31256
273.03        38.97153
273.48        38.29876
273.94        37.31495
274.39        36.08078
274.85        34.86797
275.31        33.92853
275.76        33.28944
276.22        32.89795
276.67        32.60524
277.13        32.28047
277.58        31.83869
278.04        31.35922
278.49        30.83623
278.95         30.3718
279.40        29.93574
279.86        29.55314
280.31         29.1494
280.77        28.72895
281.22        28.25455
281.68        27.79253
282.13        27.35553
282.59        27.03554
283.04        26.81485
283.50         26.6954
283.95        26.61657
284.41        26.49643
284.86        26.31986
285.32        26.13443
285.77        25.99495
286.22        26.03994
286.68        26.27458
287.13        26.60275
287.59        26.93599
288.04        27.09593
288.50        27.06655
288.95        26.88784
289.41        26.64002
289.86        26.37377
290.32        26.16574
290.77        26.00583
291.22        25.95412
291.68        26.08143
292.13        26.39536
292.59        26.90536
293.04        27.58239
293.50        28.38839
293.95        29.28826
294.40        30.28184
294.86        31.35442
295.31        32.47876
295.77        33.65485
296.22        34.87232
296.68        36.14186
297.13        37.46976
297.58        38.87375
298.04        40.35862
298.49        41.93589
298.95        43.63951
299.40        45.44822
299.85         47.3402
300.31        49.27365
300.76        51.16533
301.21        53.00118
301.67        54.81836
302.12         56.5999
302.58        58.40888
303.03        60.22067
303.48        62.05221
303.94        63.93565
304.39        65.85603
304.84        67.83096
305.30        69.85603
305.75         71.8742
306.20        73.88546
306.66        75.88587
307.11        77.83811
307.57        79.69964
308.02        81.30215
308.47        82.66158
308.93        83.82984
309.38        84.94826
309.83        86.35146
310.29         88.0942
310.74        90.07164
311.19        92.01523
311.65        93.45184
312.10        94.25749
312.55        94.58263
313.00        94.74519
313.46        95.24284
313.91        96.17074
314.36        97.40047
314.82        98.69321
315.27        99.67426
315.72        100.2165
316.18        100.4782
316.63        100.5911
317.08        100.8028
317.53        101.1956
317.99        101.6774
318.44        102.2104
318.89        102.7111
319.35        103.1373
319.80        103.5214
320.25        103.8643
320.70        104.1623
321.16        104.4155
321.61        104.6592
322.06        104.8698
322.51        105.0261
322.97        105.1205
323.42        105.1685
323.87        105.2725
324.32         105.618
324.78        106.1955
325.23        107.0286
325.68        107.8422
326.13        108.1886
326.59        107.9681
327.04        107.3372
327.49        106.6431
327.94        106.4735
328.39        106.9697
328.85        107.9316
329.30        109.1395
329.75        109.9333
330.20        110.1029
330.66        109.8087
331.11        109.3887
331.56         109.311
332.01          109.72
332.46        110.4438
332.92        111.2283
333.37        111.8151
333.82        112.0423
334.27          112.06
334.72        111.9854
335.17         111.985
335.63        112.1329
336.08         112.438
336.53         112.929
336.98         113.707
337.43        114.7546
337.88        115.9966
338.34        117.2845
338.79        118.4848
339.24        119.4499
339.69        120.2073
340.14        120.6485
340.59        120.6352
341.05        120.2416
341.50        119.5499
341.95        118.9071
342.40        118.8358
342.85        119.4478
343.30        120.5918
343.75        121.9836
344.20        123.1263
344.66        123.8443
345.11        124.2542
345.56        124.4361
346.01        124.5366
346.46        124.6432
346.91        124.7275
347.36        124.8233
347.81        125.0104
348.26        125.2934
348.72        125.6352
349.17        126.0567
349.62        126.6107
350.07        127.2654
350.52        128.0163
350.97        128.5761
351.42        128.4968
351.87        127.7389
352.32        126.4568
352.77        125.1674
353.22        124.6334
353.67        124.9926
354.13        126.0273
354.58          127.22
355.03        127.6491
355.48        127.0829
355.93        125.8062
356.38        124.3772
356.83        123.6366
357.28        123.7521
357.73        124.4225
358.18        125.1598
358.63        125.1877
359.08        124.3129
359.53         122.825
359.98        121.1195
360.43        119.7606
360.88        118.8924
361.33        118.3264
361.78        117.8571
362.23        117.1746
362.68        116.2046
363.13        115.0912
363.58        113.9568
364.03        112.9573
364.48        112.1329
364.93        111.4049
365.38        110.7377
365.83        110.0961
366.28        109.4599
366.73        108.8519
367.18         108.232
367.63        107.5268
368.08        106.7275
368.53        105.8501
368.98        104.9688
369.43        104.2064
369.88        103.5872
370.33        103.0746
370.78        102.5915
371.23        102.0126
371.68        101.3067
372.13        100.5133
372.58        99.69902
373.03        98.96649
373.48        98.33511
373.93        97.75961
374.38         97.1879
374.83        96.54601
375.28         95.8166
375.72        95.01652
376.17        94.22353
376.62        93.43349
377.07        92.67585
377.52        91.97556
377.97         91.3564
378.42        90.87296
378.87        90.52656
379.32        90.25082
379.77        90.07442
380.22        90.03918
380.67        90.10492
381.11        90.28017
381.56        90.26357
382.01        89.66783
382.46        88.49009
382.91         86.9421
383.36        85.45889
383.81        84.62935
384.26        84.53903
384.71        84.98614
385.15        85.68063
385.60        86.10478
386.05        86.08137
386.50        85.74641
386.95        85.18876
387.40        84.55985
387.85        83.94444
388.29        83.25674
388.74        82.64756
389.19        82.11677
389.64        81.66864
390.09        81.30733
390.54        81.02411
390.98        80.77242
391.43        80.56861
391.88        80.39042
392.33        80.21971
392.78        79.99026
393.23        79.68589
393.67        79.40974
394.12        79.20515
394.57        78.70125
395.02        78.03461
395.47        77.83812
395.91        78.05193
396.36        77.97375
396.81        77.58386
397.26        77.27502
397.71        77.06927
398.15        76.82646
398.60         76.6496
399.05        76.42242
399.50        76.15792
399.95        76.15768
400.39        76.33833
400.84        75.93546
401.29        75.10403
401.74        74.99233
402.18        75.48669
402.63        75.24685
403.08        74.37476
403.53        74.01012
403.97        74.17481
404.42        74.25316
404.87        74.17805
405.32        74.01313
405.76        73.71999
406.21        73.58047
406.66        73.53465
407.11        72.95801
407.55         72.1656
408.00        72.33076
408.45        73.34341
408.90        74.06848
409.34        74.14694
409.79        73.54421
410.24        72.55285
410.68        71.98123
411.13        71.93584
411.58        71.91678
412.03        71.80817
412.47        71.68392
412.92        71.49605
413.37        71.26052
413.81        71.05398
414.26        71.05891
414.71        71.26768
415.15        71.64333
415.60        72.04898
416.05        72.32841
416.49         72.4247
416.94        72.37216
417.39        72.23579
417.83        72.10085
418.28        72.01319
418.73        71.95901
419.17        71.93964
419.62        71.95867
420.07        71.99043
420.51        72.00224
420.96        72.03624
421.41        72.01466
421.85        71.89118
422.30        71.98543
422.74        72.11333
423.19         71.5905
423.64        70.63506
424.08        70.51421
424.53        71.18327
424.98        71.51596
425.42        71.44572
425.87        71.63586
426.31        72.02203
426.76         72.0694
427.21        71.80357
427.65        71.51025
428.10        71.23921
428.54        71.12126
428.99        71.22897
429.44        71.04641
429.88        70.79515
430.33         71.7004
430.77        73.21097
431.22        73.63967
431.66         72.9093
432.11        71.98583
432.56        71.32649
433.00        71.08716
433.45        71.45129
433.89        72.71305
434.34        73.92547
434.78        74.11749
435.23        72.64743
435.67        70.19962
436.12        71.16132
436.57        71.49529
437.01        72.07892
437.46         72.8129
437.90         72.3036
438.35        71.74533
438.79        71.74773
439.24        71.67374
439.68        71.76298
440.13        72.18861
440.57        72.87372
441.02        72.95898
441.46        72.53057
441.91        73.16168
442.35        74.43965
442.80        73.95718
443.24        72.97044
443.69        72.83224
444.13        73.75695
444.58         74.0673
445.02        73.71397
445.47        73.62647
445.91        73.87448
446.36        74.09525
446.80        74.24438
447.24        74.80338
447.69        75.08868
448.13        75.15179
448.58        75.06838
449.02        74.99297
449.47        75.01912
449.91        74.93027
450.36        74.77529
450.80        74.67413
451.25        74.65255
451.69        74.61652
452.13        74.57758
452.58        74.55732
453.02        74.55503
453.47        74.57298
453.91         74.5909
454.36        74.60466
454.80        74.58594
455.24        74.39511
455.69        74.02489
456.13         73.7294
456.58        73.60397
457.02          72.852
457.46        72.37603
457.91        72.61626
458.35        73.42638
458.79        73.47935
459.24        72.74733
459.68        71.84883
460.13         71.1332
460.57        70.77268
461.01        70.88644
461.46        71.32314
461.90         71.8378
462.34        72.38407
462.79        71.95573
463.23        71.98445
463.68        72.10443
464.12        72.01263
464.56         71.6507
465.01        70.81211
465.45         69.9881
465.89        69.84978
466.34        70.30782
466.78        70.56166
467.22        70.58252
467.67        69.94064
468.11        70.12465
468.55        70.06715
468.99        70.12634
469.44        69.96281
469.88        69.59103
470.32        69.23513
470.77        68.96416
471.21        68.79984
471.65        68.75194
472.10        68.82571
472.54        68.95582
472.98        69.01123
473.42        68.94726
473.87        68.91428
474.31        68.86333
474.75        68.52953
475.20        68.04902
475.64        68.02084
476.08        68.41608
476.52        68.37652
476.97         67.7906
477.41        68.01591
477.85        68.01192
478.29        67.30632
478.74        67.92368
479.18        68.40046
479.62          68.025
480.06        68.01219
480.50        67.89788
480.95        67.93862
481.39        68.19813
481.83        67.38727
482.27         67.2749
482.72        68.11869
483.16        67.68565
483.60        67.47968
484.04        67.79311
484.48        68.01138
484.93        68.27173
485.37        67.80604
485.81        67.50825
486.25        67.06017
486.69        69.37521
487.14        70.05094
487.58        67.46867
488.02        67.93645
488.46        67.19875
488.90        66.42813
489.34        67.53416
489.79         68.8188
490.23        67.72115
490.67        67.34157
491.11        66.92673
491.55        66.75264
491.99        66.76037
492.43        66.58906
492.88        66.28523
493.32        66.21909
493.76        66.39787
494.20        66.53303
494.64        66.57246
495.08        66.70463
495.52        66.87904
495.96        66.69193
496.41        66.24477
496.85        66.31887
497.29        66.72401
497.73        66.59806
498.17        65.75531
498.61        65.53215
499.05        65.86282
499.49        66.27363
499.93        66.38395
500.37        66.32639
500.82        66.09883
501.26        66.10202
501.70        66.34359
502.14        66.51534
502.58        66.59142
503.02        66.66843
503.46        66.73322
503.90        66.79648
504.34        66.80386
504.78        66.59113
505.22        66.19927
505.66         65.8629
506.10        65.70508
506.54        65.62922
506.98        65.55673
507.42        65.87659
507.86        66.08241
508.30        65.47055
508.74         65.9922
509.18        65.84328
509.62        65.67566
510.06        65.55202
510.50        65.50999
510.94         65.4825
511.38        65.45639
511.82        65.47211
512.26        65.52443
512.70        65.61723
513.14        65.71599
513.58          65.758
514.02        65.73196
514.46        65.64941
514.90        65.56563
515.34        65.57343
515.78        65.68598
516.22        65.86806
516.66        66.04501
517.10        66.09756
517.54        66.00129
517.98        65.80241
518.42         65.5638
518.86        65.38604
519.30        65.30115
519.74        65.27563
520.18        65.29585
520.62        65.33771
521.06        65.38852
521.50        65.46626
521.93        65.54186
522.37        65.54371
522.81        65.47188
523.25        65.33537
523.69        65.20551
524.13        65.19984
524.57        65.33098
525.01        65.55273
525.45        65.77047
525.89        65.82937
526.32        65.68985
526.76        65.43024
527.20        65.11949
527.64        64.87109
528.08        64.72594
528.52        64.64751
528.96        64.64185
529.40        64.71811
529.83        64.85779
530.27        65.06361
530.71        65.26093
531.15        65.33415
531.59        65.26157
532.03        65.07117
532.46        64.83199
532.90        64.70433
533.34        64.71347
533.78        64.77943
534.22        64.84738
534.66        64.91219
535.09        64.90382
535.53        64.70003
535.97        64.36776
536.41        64.17788
536.85         64.1636
537.28         64.1914
537.72        64.23689
538.16        64.31146
538.60        64.39685
539.04        64.49079
539.47        64.56496
539.91        64.61629
540.35        64.62801
540.79        64.60241
541.22        64.55424
541.66         64.5306
542.10        64.53522
542.54        64.56026
542.97         64.5754
543.41        64.56339
543.85        64.50668
544.29        64.41918
544.72        64.31945
545.16        64.25276
545.60        64.21888
546.04        64.28069
546.47        64.40257
546.91        64.39529
547.35        64.32016
547.79        64.44209
548.22        64.72069
548.66         64.9806
549.10        65.17849
549.53        65.05518
549.97        64.70277
550.41        64.41435
550.84         64.3005
551.28        64.32351
551.72        64.40005
552.15        64.47396
552.59        64.58537
553.03        64.13778
553.46        64.49048
553.90        64.48132
554.34        64.49699
554.77        64.56113
555.21        64.67529
555.65          64.696
556.08        64.74259
556.52        64.70348
556.96        64.57315
557.39          64.589
557.83        64.69207
558.27        64.55816
558.70        64.21494
559.14        64.01361
559.57        63.97726
560.01        63.96936
560.45        64.00594
560.88        64.19238
561.32        64.48679
561.75        64.72267
562.19        64.84698
562.63        64.72202
563.06        64.44192
563.50        64.36707
563.93        64.44575
564.37        64.52963
564.80         64.5834
565.24         64.3979
565.68         63.8987
566.11         64.4981
566.55        63.89798
566.98        63.81781
567.42         63.7032
567.85        63.91079
568.29        64.38599
568.72        64.77189
569.16        65.10162
569.60        65.25503
570.03        65.43459
570.47        65.59484
570.90         65.8672
571.34        65.12518
571.77        65.68032
572.21        65.68713
572.64        65.67413
573.08        65.77431
573.51          65.033
573.95        65.06493
574.38        65.68996
574.82        65.77635
575.25        65.62595
575.69        65.65596
576.12        65.63042
576.56         65.0705
576.99        65.08566
577.42        65.36253
577.86         65.4021
578.29        66.72571
578.73        66.43906
579.16        66.26926
579.60        65.48772
580.03        65.46539
580.47        65.37517
580.90        65.98011
581.33        65.93096
581.77        66.27152
582.20         66.5424
582.64        66.98891
583.07        66.25149
583.51        65.73678
583.94        65.47184
584.37        65.41969
584.81        65.68258
585.24        65.86399
585.68         65.8465
586.11        65.90165
586.54        66.21918
586.98        65.27228
587.41        64.40814
587.85        65.34683
588.28        65.20052
588.71        64.99671
589.15        64.40591
589.58        65.34366
590.01        64.82632
590.45        64.53565
590.88        65.53453
591.31        65.34889
591.75        64.70214
592.18        64.31216
592.61        64.47546
593.05        64.85381
593.48        66.07675
593.91         65.9859
594.35        65.40295
594.78        64.73175
595.21        64.31252
595.65        64.80734
596.08        66.15084
596.51        65.53706
596.94        64.74331
597.38        64.21967
597.81        64.57993
598.24        64.88393
598.68        64.78638
599.11        64.51301
599.54        65.98218
599.97        65.42313
600.41        65.26176
600.84        64.51406
601.27        65.23137
601.70        64.94198
602.14         65.1411
602.57        64.91918
603.00        64.79693
603.43         64.2534
603.87        64.89002
604.30        65.04198
604.73        65.23041
605.16        64.32516
605.60        64.21069
606.03        63.98088
606.46        64.12926
606.89        64.12925
607.32        64.89888
607.76        64.19603
608.19         64.6621
608.62        64.68133
609.05        64.43208
609.48        64.22547
609.92        64.78083
610.35        64.47253
610.78         64.0982
611.21        64.15804
611.64        64.19332
612.07        64.46072
612.50         64.4179
612.94        64.43315
613.37        64.33923
613.80        64.49403
614.23        63.74397
614.66        63.79805
615.09        64.24541
615.52        64.33961
615.96        64.00209
616.39        64.08996
616.82        64.30525
617.25        63.75171
617.68        63.76053
618.11        63.83189
618.54        64.26332
618.97        64.27244
619.40        63.89337
619.84         63.7781
620.27        63.56293
620.70        63.62426
621.13        63.87778
621.56         62.9786
621.99        62.43252
622.42        62.93151
622.85        62.93839
623.28        62.87335
623.71        62.86655
624.14        62.99561
624.57        63.10329
625.00        63.16251
625.43        63.16716
625.86        63.16371
626.29        63.29822
626.72        62.71413
627.15        63.26192
627.58        63.39899
628.01        63.51317
628.44        63.53215
628.87        62.99764
629.30        62.65107
629.73        62.90433
630.16        62.91645
630.59        62.79649
631.02        62.85995
631.45        63.06904
631.88        63.20542
632.31        63.23155
632.74        63.20715
633.17        63.13866
633.60        63.04179
634.03        62.93147
634.46        62.79244
634.89        62.64286
635.32        62.53466
635.75        62.48283
636.18        62.41193
636.61        62.33987
637.04        62.33138
637.47        62.38557
637.89        62.47523
638.32        62.54675
638.75        62.57367
639.18         62.5456
639.61        62.47264
640.04        62.38892
640.47        62.35089
640.90         62.3735
641.33        62.44186
641.76        62.53153
642.18        62.60916
642.61        62.64033
643.04         62.6394
643.47        62.62125
643.90        62.61015
644.33        62.61009
644.76        62.61463
645.18        62.60022
645.61         62.5122
646.04        62.35676
646.47         62.1639
646.90        61.98865
647.33        61.90469
647.75        61.90338
648.18        62.01838
648.61        62.24182
649.04         62.3122
649.47        62.15392
649.89        62.79293
650.32        62.52698
650.75        62.50657
651.18        62.30944
651.61        62.24427
652.03        62.38297
652.46        62.56244
652.89        62.72053
653.32        62.86737
653.74        63.14713
654.17        62.33188
654.60        63.13151
655.03        62.45208
655.46        62.09404
655.88        61.89897
656.31        65.56652
656.74         69.4462
657.16        69.12933
657.59        68.18359
658.02        64.48048
658.45        63.79156
658.87        63.24028
659.30        62.43841
659.73        62.36128
660.15         63.3307
660.58        62.66858
661.01        62.63034
661.44        62.35592
661.86        61.97072
662.29         61.4984
662.72        61.89957
663.14        61.93494
663.57        61.95617
664.00        61.70262
664.42        61.81166
664.85        62.28584
665.27        62.74098
665.70        63.01448
666.13        63.09887
666.55        62.96734
666.98        62.54836
667.41        61.96774
667.83        61.84695
668.26         61.6042
668.69        61.70298
669.11        61.89024
669.54        62.05054
669.96        62.14662
670.39        62.23618
670.82        62.33414
671.24        62.39355
671.67        62.44085
672.09        62.51785
672.52         62.6278
672.94        62.74725
673.37         62.8277
673.80        62.70911
674.22        62.45407
674.65        62.30477
675.07        62.30895
675.50        62.31865
675.92        62.31137
676.35        62.30071
676.77        62.27662
677.20        62.23143
677.62        62.18785
678.05        62.17874
678.47        62.20832
678.90        62.27596
679.32        62.33801
679.75        62.33866
680.17        62.26249
680.60        62.12634
681.02        62.00002
681.45        61.97623
681.87        62.08294
682.30        62.31978
682.72        62.59768
683.15        62.64342
683.57        62.47342
684.00        62.32228
684.42        62.27493
684.85        62.30092
685.27        62.42163
685.70        62.68668
686.12         62.9733
686.54        63.12372
686.97        63.12149
687.39        62.74402
687.82        62.60244
688.24        62.47428
688.66        62.52357
689.09        62.54402
689.51        62.52249
689.94        62.55217
690.36        62.62157
690.78        62.61128
691.21        62.56423
691.63        62.65585
692.06        62.86509
692.48        63.01492
692.90        63.04566
693.33        63.00096
693.75        62.87286
694.17        62.58925
694.60        62.27105
695.02        62.17112
695.44        62.30938
695.87        62.58583
696.29         62.8751
696.71        62.89141
697.14        62.66925
697.56        62.49318
697.98        62.43532
698.41        62.61375
698.83        62.59304
699.25        62.87422
699.68        63.18853
700.10        63.29165
700.52         63.1151
700.94        62.75928
701.37        62.37717
701.79        62.20675
702.21        62.30075
702.64        62.56793
703.06        62.89956
703.48        63.09988
703.90        63.10979
704.33        62.99765
704.75         62.8159
705.17        62.63789
705.59        62.50667
706.01        62.39738
706.44        62.34187
706.86        62.42453
707.28        62.63679
707.70        62.92105
708.12         63.2159
708.55        63.48228
708.97        63.65577
709.39        63.58632
709.81        63.33314
710.23        63.17911
710.66        63.16885
711.08        63.18315
711.50        63.17199
711.92        63.12445
712.34        63.03318
712.76        62.92046
713.19        62.80947
713.61         62.7741
714.03         62.8261
714.45        62.92013
714.87        63.03565
715.29        63.23806
715.71        63.52949
716.13        63.50811
716.56        63.80548
716.98        63.90868
717.40        63.97786
717.82        63.99737
718.24        63.94347
718.66        63.77102
719.08        63.49799
719.50        63.15644
719.92        62.82923
720.34        62.69431
720.76        62.79071
721.19        62.82334
721.61        63.17296
722.03        63.40922
722.45         63.6049
722.87        63.76529
723.29        63.85427
723.71        63.81129
724.13        63.63765
724.55        63.35839
724.97        63.06223
725.39        62.90812
725.81        62.93679
726.23        63.08574
726.65        63.28375
727.07        63.55019
727.49        63.61852
727.91        63.70292
728.33        63.75626
728.75        63.82174
729.17        63.90578
729.59        63.98088
730.01        64.04091
730.43        64.07872
730.85        64.09048
731.27        64.08557
731.69        64.05069
732.10        63.96225
732.52        63.81956
732.94        63.64058
733.36        63.49521
733.78        63.36845
734.20        63.26736
734.62        63.44904
735.04        63.91275
735.46         63.4307
735.88         63.8957
736.30        63.86036
736.72        63.93478
737.13        64.21963
737.55        64.59064
737.97        64.77789
738.39        64.71191
738.81        64.43736
739.23        64.08288
739.65        64.05114
740.06         64.2995
740.48        64.41936
740.90        64.37195
741.32         64.4535
741.74         64.6489
742.16        64.75171
742.57        64.74332
742.99        64.67935
743.41        64.57716
743.83        64.43576
744.25         64.2748
744.67        64.09669
745.08        63.97369
745.50        63.98858
745.92        64.15819
746.34        64.45229
746.75        64.75948
747.17        64.87999
747.59        64.77748
748.01        64.51772
748.42        64.20647
748.84        64.01354
749.26        63.99683
749.68        64.09856
750.09        64.25713
750.51        64.41769
750.93        64.50979
751.35        64.44405
751.76        64.24992
752.18        64.09781
752.60        64.00623
753.01         63.9007
753.43         63.7724
753.85        63.68119
754.27        63.64013
754.68        63.64811
755.10        63.71283
755.52        63.82719
755.93         63.9763
756.35        64.16926
756.77        64.40445
757.18        64.52882
757.60        64.51183
758.02        64.64777
758.43        64.94662
758.85        64.28252
759.26        64.48307
759.68        64.27111
760.10        64.20094
760.51        64.43051
760.93        64.90664
761.34        64.61141
761.76         64.7569
762.18        64.70023
762.59        64.84069
763.01        64.91274
763.42        64.94957
763.84        64.92567
764.26        64.84762
764.67          64.745
765.09        64.65419
765.50        64.46351
765.92        64.24606
766.33        64.12695
766.75        64.06998
767.16        64.04481
767.58        64.00793
768.00        64.02122
768.41        64.08926
768.83        64.17953
769.24        64.25155
769.66        64.24057
770.07        64.17582
770.49        64.10271
770.90        64.11319
771.32        64.49951
771.73         65.1031
772.15        65.29655
772.56        65.03227
772.97        64.57902
773.39        64.14623
773.80        63.99364
774.22        64.17631
774.63        64.66431
775.05        65.20538
775.46        65.45503
775.88        65.29309
776.29        64.85301
776.70        64.35027
777.12        64.15314
777.53        64.36144
777.95        64.81826
778.36        65.35031
778.77        65.63324
779.19        65.59451
779.60        65.36613
780.02        65.03793
780.43        64.82292
780.84        64.82092
781.26        64.66022
781.67        64.43138
782.09        65.00131
782.50        66.16646
782.91        65.84295
783.33        65.56207
783.74        65.24711
784.15        65.38959
784.57        65.26316
784.98        64.96439
785.39        64.93852
785.81        65.19901
786.22        65.64004
786.63        66.09311
787.04        66.28648
787.46        66.17665
787.87        65.83697
788.28        65.44608
788.70        65.25326
789.11        65.29676
789.52        65.52554
789.93        65.81233
790.35        65.93738
790.76        65.84845
791.17        65.60868
791.58        65.34073
792.00        65.14494
792.41        65.06882
792.82        65.28507
793.23        65.65211
793.65        65.43935
794.06        64.89397
794.47        65.22218
794.88        66.15401
795.29        66.82745
795.71        66.18845
796.12        65.78481
796.53         65.5219
796.94        65.41898
797.35        65.54665
797.76        65.92188
798.18        66.36675
798.59         66.5998
799.00        66.52746
799.41         66.2291
799.82        65.85218
800.23        65.64964
800.64        65.68602
801.06        65.84441
801.47        66.06393
801.88        66.16076
802.29        66.07684
802.70        65.87556
803.11        65.61336
803.52        65.37428
803.93        65.21795
804.34        65.13356
804.75        65.12812
805.17        65.28818
805.58        65.65562
805.99        65.91305
806.40         66.0743
806.81        66.81429
807.22        67.79434
807.63        67.51128
808.04        66.20326
808.45        65.58899
808.86        65.82427
809.27        65.99916
809.68        65.97881
810.09        65.96261
810.50        65.91605
810.91        65.80241
811.32        65.71988
811.73        65.81599
812.14        66.11105
812.55        66.55097
812.96        67.00842
813.37        67.24137
813.78        67.17371
814.19        66.89468
814.60        66.50193
815.01        66.12336
815.42        65.80116
815.83        65.49603
816.24        65.24783
816.65         65.1358
817.05        65.18939
817.46        65.38467
817.87        65.64041
818.28        65.77077
818.69        65.73663
819.10        65.56374
819.51        65.39555
819.92        65.49734
820.33        65.91604
820.74        66.54592
821.14        67.17269
821.55          67.458
821.96        67.32456
822.37        66.88167
822.78        66.30408
823.19        65.88989
823.60        65.74722
824.00        65.82078
824.41         65.9933
824.82        66.16037
825.23        66.26035
825.64        66.33321
826.04        66.39266
826.45        66.41137
826.86        66.40646
827.27        66.38534
827.68        66.33418
828.08        66.26981
828.49        66.15569
828.90        66.00274
829.31        65.91407
829.72        66.05614
830.12        66.46806
830.53        67.04634
830.94        67.57948
831.35        67.65894
831.75        67.21269
832.16        66.35542
832.57        65.39816
832.97        64.81588
833.38         64.7391
833.79        65.01234
834.20        65.47678
834.60        65.87138
835.01        66.10845
835.42        66.31409
835.82        66.47919
836.23        66.50678
836.64        66.42557
837.04        66.19782
837.45        66.02783
837.86         66.3281
838.26        67.17451
838.67         68.4122
839.08        69.60374
839.48        69.92072
839.89        69.17223
840.29        67.67232
840.70        66.08361
841.11        65.17845
841.51        65.15264
841.92        65.75847
842.33        66.72308
842.73        67.54879
843.14        67.93028
843.54        68.05795
843.95        68.03015
844.35        68.05891
844.76        68.18786
845.17        68.32088
845.57        68.38794
845.98        68.27438
846.38        67.98915
846.79        67.59516
847.19         67.2065
847.60         66.9659
848.00        66.92168
848.41        67.00063
848.81        67.16415
849.22         67.2635
849.62        67.29192
850.03        67.28468
850.43        67.24961
850.84        67.13378
851.24        66.98672
851.65        66.74878
852.05        66.61626
852.46        66.82468
852.86        67.39117
853.27        68.20603
853.67         68.9335
854.07        69.22638
854.48         69.0033
854.88        68.39635
855.29        67.57671
855.69        66.99681
856.10        66.75172
856.50        66.80563
856.90        66.99775
857.31        67.06766
857.71        66.98441
858.12        66.77122
858.52        66.56239
858.92        66.46009
859.33        66.47721
859.73        66.60167
860.13        66.70317
860.54        66.60435
860.94        66.31075
861.34        65.87376
861.75        65.43184
862.15        65.24502
862.55        65.35916
862.96        65.67062
863.36        66.09263
863.76        66.39349
864.17        66.47869
864.57        66.43158
864.97         66.2641
865.38        66.00902
865.78        65.72234
866.18        65.38985
866.58        65.07254
866.99        64.88556
867.39        64.88761
867.79        65.05415
868.19        65.33347
868.60        65.60832
869.00        65.86362
869.40        66.09167
869.80         66.2935
870.21        66.46978
870.61        66.66248
871.01        66.81277
871.41        66.83762
871.81        66.62925
872.22        66.18361
872.62        65.53631
873.02        64.88658
873.42        64.56659
873.82        64.66258
874.22        65.09059
874.63        65.59834
875.03         65.7917
875.43        65.56646
875.83         65.0467
876.23        64.47611
876.63        64.23667
877.03        64.41741
877.44        64.86149
877.84        65.38599
878.24        65.69885
878.64        65.66247
879.04        65.24814
879.44        64.68178
879.84        64.40939
880.24        64.49284
880.64        64.75005
881.04        64.96555
881.44        64.82747
881.84        64.27428
882.24        63.44776
882.65        62.59076
883.05        62.05702
883.45        61.95237
883.85        62.18452
884.25        62.61883
884.65        63.01754
885.05        63.28765
885.45        63.48417
885.85        63.66348
886.25        63.91949
886.65        64.26652
887.05        64.64048
887.45        64.96515
887.85        65.13472
888.25        65.11473
888.65        64.94154
889.04        64.67032
889.44        64.41287
889.84        64.19162
890.24        63.98748
890.64        63.78309
891.04        63.54715
891.44         63.2889
891.84        63.05521
892.24        62.86529
892.64        62.72994
893.04        62.66298
893.44        62.66267
893.83        62.77851
894.23        63.04094
894.63        63.45171
895.03        63.95695
895.43        64.47108
895.83         64.8657
896.23         65.0825
896.63        65.13168
897.02        65.00511
897.42        64.73318
897.82        64.34886
898.22        63.88512
898.62        63.40687
899.01        62.99148
899.41        62.68993
899.81        62.49632
900.21        62.41657
900.61        62.44928
901.00        62.57174
901.40        62.75152
901.80        62.95528
902.20        63.12607
902.59        63.25497
902.99        63.36544
903.39         63.4052
903.79        63.29525
904.18        63.03497
904.58        62.64254
904.98        62.33821
905.38        62.46804
905.77        63.07268
906.17        64.06917
906.57          65.067
906.96        65.40852
907.36        64.94029
907.76        63.87957
908.15        62.74348
908.55        62.34032
908.95        62.86462
909.34        64.06501
909.74        65.44154
910.14        66.23971
910.53        66.20816
910.93        65.62721
911.33        64.74841
911.72        63.94485
912.12        63.42643
912.52         63.0664
912.91        62.88356
913.31        62.94012
913.70        63.21581
914.10         63.6847
914.49         64.2789
914.89        64.76904
915.29        65.08797
915.68        65.26711
916.08        65.24507
916.47        65.02264
916.87         64.6451
917.26        64.09966
917.66        63.58582
918.05        63.27388
918.45         63.2121
918.84        63.42324
919.24         63.7118
919.64        63.85292
920.03        63.79579
920.42        63.55348
920.82        63.37002
921.21        63.58142
921.61        64.21868
922.00        65.19983
922.40        66.14107
922.79        66.51075
923.19         66.1468
923.58        65.26856
923.98        64.26122
924.37        63.62292
924.77        63.50079
925.16        63.71681
925.55        64.12373
925.95        64.44109
926.34        64.57273
926.74         64.5911
927.13        64.49864
927.52        64.22199
927.92        63.83105
928.31        63.33762
928.70        62.88228
929.10        62.66952
929.49        62.72325
929.89        62.92179
930.28        63.30815
930.67        63.82895
931.07        64.39645
931.46        65.10174
931.85        65.60221
932.24        65.39902
932.64        64.49193
933.03        63.01273
933.42        61.62424
933.82        61.30098
934.21        62.21409
934.60        64.12888
934.99        66.31628
935.39         67.4404
935.78        67.14856
936.17        65.73943
936.56        63.94463
936.96        62.93133
937.35        63.00851
937.74        63.81771
938.13        64.79833
938.53        65.08517
938.92        64.47823
939.31        63.33778
939.70        62.11654
940.09        61.42576
940.49        61.39207
940.88         61.8301
941.27        62.52338
941.66         63.0882
942.05        63.38017
942.44          63.548
942.84        63.66837
943.23        63.83905
943.62        64.10098
944.01        64.34211
944.40        64.61438
944.79         65.0493
945.18        65.61554
945.57        66.25402
945.97         66.6673
946.36        66.45244
946.75        65.52942
947.14        64.15017
947.53        62.66685
947.92        61.55709
948.31        60.96616
948.70        60.76963
949.09        60.96005
949.48        61.50387
949.87        62.31327
950.26        63.36481
950.65        64.40788
951.04        65.03095
951.43         65.1096
951.82        64.69837
952.21        64.00397
952.60        63.41008
952.99         63.0654
953.38        62.92392
953.77        62.88718
954.16        62.78399
954.55        62.56195
954.94        62.24893
955.33        62.01281
955.72        62.12187
956.11        62.60763
956.50        63.38382
956.89        64.03541
957.28        63.88638
957.66        62.82692
958.05        61.15744
958.44        59.47252
958.83        58.61653
959.22        58.75393
959.61        59.64071
960.00        60.85676
960.39        61.60263
960.78        61.59901
961.16        61.09169
961.55        60.41589
961.94        59.99152
962.33        59.95755
962.72        60.18663
963.11        60.57959
963.49        60.99982
963.88        61.28513
964.27         61.4613
964.66        61.64274
965.04        62.02428
965.43        62.58225
965.82        63.31312
966.21        63.83901
966.60         63.4894
966.98        62.16703
967.37        60.22503
967.76        58.40353
968.15        57.61988
968.53        58.01697
968.92         59.3754
969.31        61.10998
969.69        62.01871
970.08        61.63892
970.47        60.38134
970.86        59.00058
971.24         58.5678
971.63        59.32235
972.02        60.95206
972.40         62.9454
972.79        64.03294
973.17        63.83519
973.56        62.76811
973.95        61.44289
974.33        60.64172
974.72        60.55418
975.11        60.90952
975.49        61.46656
975.88        61.73057
976.26        61.58207
976.65        61.18022
977.04        60.70051
977.42        60.34476
977.81        60.15306
978.19        60.03042
978.58        60.07596
978.96        60.42044
979.35        61.03087
979.74        61.88944
980.12        62.80868
980.51        63.21862
980.89        63.10498
981.28        62.59685
981.66        62.01624
982.05        61.81275
982.43        62.10696
982.82        62.73833
983.20        63.68796
983.59        64.78712
983.97        65.98069
984.35        67.28149
984.74        68.31345
985.12        68.70205
985.51        68.31602
985.89        67.27247
986.28        66.12891
986.66        65.66832
987.04        66.12629
987.43        67.28645
987.81        68.66444
988.20         69.1854
988.58        68.54212
988.96        66.98167
989.35        65.13446
989.73        63.87638
990.12        63.39429
990.50        63.51733
990.88        63.70149
991.27        63.03553
991.65        61.40213
992.03         59.2186
992.42        57.35401
992.80        56.94802
993.18        58.21666
993.56        60.84093
993.95        63.94992
994.33        65.99237
994.71        66.25739
995.10        65.24251
995.48        63.73521
995.86        63.04464
996.24        63.48497
996.63        64.48519
997.01        65.76479
997.39        66.42957
997.77           66.12
998.15        65.36964
998.54        64.17983
998.92        62.33595
999.30        60.09808
999.68        57.57884
1000.06        55.73185
1000.45        55.93096
1000.83        58.48286
1001.21        63.16458
1001.59        68.80979
1001.97        72.46383
1002.35        72.87031
1002.73        70.80173
1003.12        67.84684
1003.50         66.1025
1003.88        66.18819
1004.26        67.36549
1004.64        69.20255
1005.02         70.7669
1005.40        71.52979
1005.78        72.00163
1006.16        71.79874
1006.54        70.21723
1006.92        67.44643
1007.30        63.80277
1007.69        60.57597
1008.07        59.47684
1008.45         60.9738
1008.83        64.68547
1009.21        69.59125
1009.59        72.97832
1009.97        73.45061
1010.35        71.75989
1010.73        68.71597
1011.11          65.577
1011.49        62.98672
1011.86        60.68303
1012.24        59.14262
1012.62        59.02906
1013.00        60.35604
1013.38        63.07063
1013.76        66.56252
1014.14        69.00595
1014.52        69.44003
1014.90        68.23771
1015.28        66.03248
1015.66        63.83263
1016.04        62.01621
1016.41         60.3386
1016.79         59.1004
1017.17        58.94151
1017.55        59.90514
1017.93        61.75974
1018.31        63.91526
1018.69        65.50733
1019.06        66.36388
1019.44        66.70566
1019.82        66.46741
1020.20        65.68575
1020.58        64.53286
1020.95        62.92686
1021.33        61.67228
1021.71        61.57987
1022.09        62.75735
1022.46        65.39746
1022.84        68.44041
1023.22        69.25442
1023.60        66.93987
1023.97         62.1748
1024.35        57.73298
1024.73        56.77071
