SpectraSmart Spectrum 2.9.0.0
--------- Device Information -----------
Spectrum Name :  反射率_0
Saving Time :  2024/04/26 23:49:57
Spectro-Module Model Name : SE2030-DUVN
Spectro-Module Serial Number : OS361AC55029948
Wavelength Start : 200
Wavelength End : 1025
Wavelength Unit : Wavelength(nm)
Spectrum Unit : Reflectance(%)
-----------Spectrum Setting ------------
Integration Time : 20ms
Average : 10
Boxcar : 0
Background removal :  enabled
linearity correction :  enabled
SC :  disabled
Intensity correction :  disabled
DWT denoise :  enabled
savitzky-golay :  disabled
FFT :  disabled
Running average :  disabled
Kalman :  disabled
High pass :  disabled
---------------BEGIN--------------------
Wavelength(nm)             Reflectance(%)
200.29               0
200.75        45.64944
201.21        46.23392
201.67        47.02079
202.13        47.51759
202.58        47.64398
203.04        47.96774
203.50        48.83985
203.96        50.65181
204.42        53.43515
204.88        56.64751
205.34        59.51548
205.80        61.11892
206.26        61.11427
206.72        59.81179
207.18        57.77823
207.64        55.18333
208.10        51.91346
208.55        47.83783
209.01        42.82747
209.47        40.52084
209.93        42.95279
210.39        47.55105
210.85        52.35289
211.31        57.83366
211.77        66.03295
212.23        81.86077
212.69        118.9035
213.14        179.3425
213.60        173.1085
214.06        127.7318
214.52        96.25836
214.98        78.74571
215.44        66.61456
215.90        55.32478
216.36        45.97303
216.81        41.33075
217.27        42.80059
217.73        51.75924
218.19        67.17967
218.65        76.53996
219.11        73.15919
219.57        63.90565
220.02        57.99955
220.48        61.60086
220.94        74.98402
221.40         99.7595
221.86        134.8795
222.32        156.7926
222.77         145.696
223.23        117.7397
223.69        90.93408
224.15        75.07735
224.61        68.14695
225.06        65.42981
225.52        64.79869
225.98        63.93626
226.44        62.42867
226.90        61.10598
227.36        60.30396
227.81        60.40672
228.27        61.47094
228.73        62.74274
229.19        64.09167
229.65        65.60497
230.10        67.16938
230.56        68.85144
231.02        69.93433
231.48        69.32818
231.93        67.05638
232.39        64.01973
232.85        61.25729
233.31        60.16458
233.77        60.82562
234.22        62.73692
234.68        65.15538
235.14        66.99578
235.60         67.8811
236.05        68.17904
236.51        67.90828
236.97        67.26674
237.43        66.47189
237.88        65.52939
238.34        64.77617
238.80        65.10294
239.26        66.90373
239.71        70.72052
240.17        76.30694
240.63         82.7047
241.08        89.02112
241.54        94.40707
242.00        99.44332
242.46        106.3763
242.91         117.735
243.37         134.486
243.83        157.3118
244.28        177.4352
244.74        179.6337
245.20        162.8129
245.66        141.0562
246.11        126.9719
246.57        121.3518
247.03        120.9324
247.48        120.2509
247.94        111.8044
248.40         98.5918
248.85        85.96278
249.31        77.54896
249.77        74.58319
250.22        76.08595
250.68        81.10513
251.14         88.8476
251.59         95.0056
252.05        96.53236
252.51        95.50417
252.96        92.21896
253.42        87.81651
253.88        83.09562
254.33        77.74182
254.79         74.9838
255.25        77.32567
255.70        83.96902
256.16        93.67264
256.62        101.8532
257.07        101.6948
257.53        95.25607
257.99        86.91634
258.44        80.06012
258.90        77.70348
259.35        78.38772
259.81        80.83147
260.27        83.24179
260.72        83.54489
261.18        81.96834
261.63        79.17525
262.09        76.50719
262.55        74.65549
263.00        73.51833
263.46          72.936
263.91        72.21317
264.37        70.94241
264.83        69.08358
265.28        66.87397
265.74        64.97436
266.19        63.80078
266.65        63.44621
267.11        63.56655
267.56        63.74917
268.02        63.37164
268.47        62.27802
268.93        60.74092
269.38        58.97556
269.84        57.38139
270.30        56.07194
270.75        54.91674
271.21        53.96654
271.66        53.22264
272.12        52.65295
272.57        52.22387
273.03        51.78196
273.48        51.04623
273.94        50.03474
274.39        48.79733
274.85        47.56554
275.31        46.49728
275.76         45.6091
276.22          44.894
276.67        44.26571
277.13        43.72724
277.58        43.18759
278.04        42.68085
278.49        42.11732
278.95        41.50594
279.40        40.79005
279.86        40.07026
280.31        39.28674
280.77        38.49553
281.22        37.67331
281.68        36.89357
282.13        36.20267
282.59        35.77111
283.04        35.56169
283.50        35.55132
283.95        35.58782
284.41        35.45135
284.86        35.09677
285.32        34.63163
285.77        34.17881
286.22         33.9904
286.68        34.09675
287.13        34.35514
287.59        34.65816
288.04        34.78744
288.50        34.71574
288.95        34.48991
289.41        34.17812
289.86        33.79431
290.32         33.4211
290.77        33.04797
291.22        32.77475
291.68        32.73088
292.13        32.93075
292.59        33.37411
293.04        33.99599
293.50        34.70116
293.95        35.45111
294.40        36.28193
294.86        37.22129
295.31        38.30329
295.77        39.54164
296.22        40.88777
296.68        42.34481
297.13        43.90533
297.58        45.56652
298.04        47.33268
298.49        49.14576
298.95        50.93608
299.40         52.6731
299.85        54.37396
300.31        56.11137
300.76        57.97501
301.21        59.98909
301.67        62.13883
302.12        64.30577
302.58        66.40543
303.03        68.36889
303.48        70.26338
303.94        72.19054
304.39        74.22417
304.84        76.41428
305.30        78.73701
305.75        81.08069
306.20        83.37551
306.66        85.60754
307.11        87.75232
307.57        89.84599
308.02         91.8229
308.47        93.70309
308.93        95.48634
309.38        97.18877
309.83        98.97664
310.29        100.8742
310.74        102.8329
311.19         104.688
311.65        106.1329
312.10        107.0904
312.55        107.6629
313.00        108.1114
313.46        108.8472
313.91        109.9409
314.36        111.3022
314.82        112.7168
315.27        113.8482
315.72          114.57
316.18        115.0117
316.63        115.2879
317.08        115.6344
317.53        116.1311
317.99        116.7028
318.44        117.2887
318.89        117.7649
319.35        118.0891
319.80        118.2992
320.25        118.4872
320.70        118.7924
321.16        119.2395
321.61        119.8426
322.06        120.4236
322.51        120.7057
322.97        120.6251
323.42        120.2637
323.87        119.9419
324.32        120.2056
324.78        121.1204
325.23        122.6212
325.68        124.1602
326.13        124.8156
326.59        124.3652
327.04        123.1202
327.49        121.7201
327.94        121.2132
328.39        121.8541
328.85        123.2897
329.30        125.1037
329.75        126.2438
330.20         126.364
330.66        125.7578
331.11        124.8939
331.56        124.4279
332.01        124.5849
332.46        125.1257
332.92        125.8111
333.37        126.4411
333.82        126.8382
334.27        127.1501
334.72        127.3968
335.17        127.5691
335.63        127.6879
336.08         127.798
336.53        128.0088
336.98        128.5749
337.43        129.5321
337.88        130.7761
338.34        132.0975
338.79        133.2747
339.24        134.1275
339.69        134.7096
340.14        134.9949
340.59        134.9686
341.05        134.7241
341.50         134.299
341.95        133.8991
342.40        133.8368
342.85        134.1872
343.30        134.8577
343.75        135.7462
344.20        136.6561
344.66        137.4831
345.11        138.2575
345.56        138.8483
346.01        139.0688
346.46         138.931
346.91         138.508
347.36        138.0414
347.81        137.9325
348.26        138.2519
348.72        138.8531
349.17        139.5529
349.62        140.0913
350.07        140.3672
350.52        140.4909
350.97        140.3637
351.42        139.8363
351.87         138.954
352.32        137.7753
352.77        136.6744
353.22         136.204
353.67        136.4366
354.13        137.2022
354.58        138.0743
355.03        138.2759
355.48         137.613
355.93        136.3241
356.38        134.8483
356.83        133.8506
357.28         133.474
357.73        133.4793
358.18        133.5516
358.63        133.1979
359.08        132.2849
359.53        131.0043
359.98         129.557
360.43        128.2073
360.88        127.0361
361.33        125.9618
361.78        124.9191
362.23        123.8254
362.68        122.6757
363.13        121.5298
363.58        120.4513
364.03         119.511
364.48        118.7038
364.93        117.9731
365.38        117.2522
365.83        116.4514
366.28        115.5482
366.73        114.5809
367.18        113.5597
367.63        112.4961
368.08        111.4126
368.53        110.3168
368.98        109.2735
369.43        108.3812
369.88        107.6538
370.33        107.0611
370.78        106.5247
371.23        105.9162
371.68        105.1945
372.13        104.3845
372.58        103.5341
373.03         102.725
373.48        101.9703
373.93        101.2311
374.38        100.4648
374.83        99.61527
375.28        98.67905
375.72        97.67754
376.17        96.70261
376.62        95.76217
377.07        94.88802
377.52        94.10448
377.97         93.4266
378.42         92.8941
378.87        92.50153
379.32        92.17955
379.77        91.95863
380.22        91.88493
380.67        91.91412
381.11        92.04898
381.56        91.97284
382.01        91.27906
382.46        89.96928
382.91        88.27262
383.36        86.64314
383.81        85.69274
384.26        85.50671
384.71        85.86674
385.15        86.48596
385.60        86.85199
386.05        86.78471
386.50        86.42483
386.95        85.81877
387.40        85.05517
387.85        84.22174
388.29        83.25871
388.74        82.40004
389.19        81.76279
389.64        81.36174
390.09        81.15455
390.54        81.04578
390.98        80.86859
391.43        80.62095
391.88        80.27297
392.33        79.87731
392.78        79.65057
393.23         79.5289
393.67        79.14043
394.12        78.62934
394.57         78.2907
395.02        78.14223
395.47        78.02846
395.91         77.8997
396.36         77.6823
396.81        77.38326
397.26         77.0474
397.71        76.69682
398.15        76.34941
398.60        76.10966
399.05        75.80621
399.50        75.47652
399.95        75.46046
400.39        75.65918
400.84        75.30833
401.29        74.50441
401.74        74.23708
402.18        74.42935
402.63        73.98716
403.08        73.07375
403.53        72.70635
403.97         72.9306
404.42        73.24921
404.87        73.47034
405.32        73.47437
405.76        73.19556
406.21        72.71365
406.66        72.17067
407.11        71.83736
407.55        71.80207
408.00        71.83907
408.45        71.89078
408.90        72.11241
409.34        72.30502
409.79        71.88508
410.24        71.04933
410.68        70.59547
411.13        70.59686
411.58        70.63586
412.03         70.6006
412.47        70.49429
412.92        70.26792
413.37        69.96981
413.81        69.69111
414.26        69.62566
414.71        69.77535
415.15        70.10446
415.60        70.48758
416.05        70.78357
416.49        70.93436
416.94        70.96343
417.39         70.9133
417.83        70.83881
418.28        70.77348
418.73        70.70573
419.17        70.64683
419.62        70.62155
420.07        70.62846
420.51        70.63999
420.96        70.68993
421.41         70.7569
421.85        70.80049
422.30        70.91628
422.74        70.97603
423.19        70.82966
423.64        70.47967
424.08        70.14175
424.53        69.90022
424.98        69.80491
425.42         69.8996
425.87        70.20778
426.31         70.5927
426.76        70.69963
427.21        70.52579
427.65        70.30254
428.10        70.10786
428.54        70.09079
428.99        70.32077
429.44         70.3604
429.88        70.36298
430.33        71.24851
430.77        72.55631
431.22        73.05701
431.66        72.65079
432.11        71.86515
432.56        71.06589
433.00        70.78168
433.45        71.19791
433.89        72.03124
434.34        72.51492
434.78        73.49828
435.23        71.94621
435.67        70.47385
436.12        70.51937
436.57        70.70792
437.01        71.39199
437.46        71.55885
437.90        71.19619
438.35        70.92761
438.79        70.87216
439.24          71.091
439.68        71.50526
440.13        71.80827
440.57        72.05838
441.02        72.44152
441.46         72.8655
441.91        73.60228
442.35        74.26069
442.80        73.74367
443.24        72.41219
443.69        72.31714
444.13        73.36894
444.58        73.82227
445.02        73.58428
445.47        73.58736
445.91        73.85171
446.36        74.05626
446.80        74.17484
447.24        74.24029
447.69        74.27422
448.13         74.3322
448.58        74.43791
449.02        74.53812
449.47        74.61472
449.91        74.61379
450.36        74.55294
450.80        74.43078
451.25        74.32369
451.69        74.28616
452.13        74.34658
452.58        74.47395
453.02        74.61226
453.47        74.68076
453.91         74.6428
454.36         74.5281
454.80          74.349
455.24         74.0712
455.69        73.71929
456.13        73.43522
456.58        73.27306
457.02        72.79192
457.46        72.23145
457.91        72.51014
458.35         73.2978
458.79        73.36694
459.24        72.72977
459.68        71.84098
460.13        70.97118
460.57        70.84215
461.01        71.21454
461.46        70.92312
461.90        71.39734
462.34        72.59125
462.79         71.9333
463.23         72.0842
463.68        72.07703
464.12        71.81036
464.56        71.27149
465.01         70.5309
465.45         69.7808
465.89        69.68272
466.34        70.10327
466.78         70.2841
467.22        70.14832
467.67         69.9418
468.11        69.76736
468.55        69.70678
468.99        69.72923
469.44        69.56092
469.88        69.21473
470.32        68.91627
470.77        68.71463
471.21        68.56602
471.65        68.47006
472.10        68.44476
472.54        68.47158
472.98        68.48583
473.42        68.45404
473.87        68.53063
474.31        68.60412
474.75        68.25492
475.20        67.64464
475.64        67.51961
476.08         67.8722
476.52        67.82615
476.97        67.29694
477.41        67.35418
477.85        67.65884
478.29        66.85306
478.74        67.55486
479.18        68.03949
479.62        67.76656
480.06        67.81168
480.50         67.7651
480.95        67.74355
481.39        67.74805
481.83        67.22417
482.27        67.25501
482.72        67.36903
483.16        67.15032
483.60        67.20019
484.04        67.30949
484.48        67.56161
484.93        67.72054
485.37        67.90011
485.81        66.90003
486.25        67.11996
486.69        69.41163
487.14         70.1207
487.58        67.69749
488.02        68.09783
488.46        66.61729
488.90        66.25013
489.34         67.4522
489.79        68.31739
490.23        67.42693
490.67        66.87369
491.11        66.40226
491.55        66.24147
491.99        66.34101
492.43        66.22472
492.88         65.9173
493.32        65.87781
493.76        66.10338
494.20        66.26543
494.64        66.31831
495.08        66.42238
495.52        66.53623
495.96        66.42271
496.41        66.13852
496.85         66.1003
497.29         66.1733
497.73        66.15315
498.17        65.27824
498.61        65.16402
499.05        65.52161
499.49        65.67197
499.93        65.37988
500.37        65.44409
500.82        65.76295
501.26        65.92606
501.70        65.90545
502.14        65.89523
502.58         65.9324
503.02        65.98251
503.46        66.05502
503.90        66.17072
504.34        66.25653
504.78        66.19783
505.22        65.96874
505.66        65.59524
506.10        65.23148
506.54        65.07678
506.98        65.06567
507.42        65.48927
507.86         65.2756
508.30        65.09639
508.74        65.24466
509.18        65.09429
509.62        64.88754
510.06        64.81479
510.50         64.9148
510.94        65.10374
511.38        65.30062
511.82        65.39443
512.26        65.35506
512.70        65.22857
513.14        65.07642
513.58        64.99402
514.02        65.01005
514.46        65.08906
514.90        65.20235
515.34        65.30612
515.78        65.37734
516.22        65.42652
516.66        65.44118
517.10        65.39933
517.54        65.30337
517.98        65.16385
518.42        65.00428
518.86        64.86588
519.30        64.76452
519.74        64.69262
520.18        64.65738
520.62        64.66336
521.06        64.70805
521.50        64.79636
521.93        64.89783
522.37        64.94132
522.81        64.92101
523.25        64.84418
523.69        64.76736
524.13        64.78432
524.57        64.90443
525.01        65.08961
525.45        65.25853
525.89        65.28053
526.32        65.12321
526.76        64.85532
527.20        64.54652
527.64        64.30996
528.08        64.18344
528.52        64.13456
528.96        64.15076
529.40        64.21015
529.83        64.29394
530.27        64.41653
530.71         64.5397
531.15         64.6076
531.59        64.60777
532.03        64.54227
532.46        64.44266
532.90        64.41039
533.34        64.45178
533.78        64.50537
534.22        64.52551
534.66        64.52059
535.09        64.43445
535.53        64.14851
535.97        63.74906
536.41        63.53518
536.85        63.54566
537.28        63.63879
537.72        63.77816
538.16        63.95184
538.60        64.12695
539.04         64.3008
539.47        64.43009
539.91        64.49213
540.35        64.47013
540.79        64.37301
541.22        64.23757
541.66        64.14915
542.10        64.12202
542.54        64.13851
542.97        64.16207
543.41        64.16141
543.85        64.11893
544.29        64.06007
544.72        63.98917
545.16        63.94971
545.60        63.93951
546.04        63.94989
546.47        63.98869
546.91          64.078
547.35        64.20927
547.79        64.33857
548.22        64.42564
548.66        64.50993
549.10        64.52958
549.53        64.41718
549.97        64.20406
550.41        63.96917
550.84        63.81375
551.28        63.81998
551.72        63.91298
552.15        64.04684
552.59        64.27536
553.03        63.69159
553.46        64.22878
553.90        64.13479
554.34        64.09734
554.77        64.04713
555.21        64.07361
555.65        63.98949
556.08        64.11448
556.52        64.13666
556.96        64.12006
557.39        64.15413
557.83        64.19766
558.27        63.94152
558.70        63.46497
559.14        63.27578
559.57        63.36535
560.01        63.34594
560.45        63.24709
560.88        63.43311
561.32        63.83832
561.75        64.05239
562.19        64.06232
562.63        63.95212
563.06        63.80593
563.50        63.88507
563.93        64.09463
564.37        64.15323
564.80        64.07131
565.24         63.9607
565.68        63.70618
566.11        64.28397
566.55        63.44022
566.98        63.36849
567.42        63.48646
567.85        63.56343
568.29        63.86221
568.72        64.17482
569.16        64.63258
569.60        64.81409
570.03        64.87275
570.47        65.22486
570.90        65.62903
571.34        64.80891
571.77         65.0823
572.21        65.82807
572.64        65.39146
573.08        65.77336
573.51        64.80971
573.95        64.77247
574.38        65.31966
574.82        65.67854
575.25         65.4682
575.69        65.41351
576.12        65.64267
576.56        64.45307
576.99        64.90353
577.42        65.48434
577.86        65.27452
578.29        66.22658
578.73        66.21905
579.16        66.11906
579.60        65.16959
580.03        65.10342
580.47        64.97187
580.90         65.9937
581.33        66.00356
581.77        66.25392
582.20         66.1384
582.64        66.93936
583.07        66.20705
583.51         65.7187
583.94        65.06687
584.37        64.85124
584.81         65.2552
585.24        65.52375
585.68        65.43195
586.11        65.94569
586.54        65.78968
586.98        64.81469
587.41        64.40525
587.85        65.07415
588.28        65.13757
588.71        64.61918
589.15        64.57822
589.58        64.59119
590.01        64.30665
590.45        64.09572
590.88        65.11989
591.31        65.10679
591.75        64.55965
592.18        63.98127
592.61        63.68657
593.05        64.48195
593.48        65.30785
593.91        65.66607
594.35        65.22631
594.78        64.45811
595.21        63.97005
595.65        64.25462
596.08        65.44739
596.51        65.17094
596.94         64.6311
597.38         64.2226
597.81        64.29488
598.24        64.97259
598.68        64.74297
599.11        64.13288
599.54        65.55942
599.97        64.97989
600.41         65.0229
600.84         64.4969
601.27        64.91108
601.70        64.55509
602.14         64.7792
602.57        64.29373
603.00        64.27505
603.43        63.72457
603.87        64.57336
604.30        64.76837
604.73        64.85355
605.16        64.02761
605.60        63.94452
606.03        63.63046
606.46        63.47977
606.89        63.88931
607.32        64.25948
607.76        63.70728
608.19        64.10445
608.62        64.20466
609.05        63.85296
609.48        63.78833
609.92        64.66257
610.35        64.03027
610.78        63.85876
611.21          63.681
611.64        63.78197
612.07        63.95054
612.50        63.77979
612.94        63.74864
613.37        63.70723
613.80         63.7322
614.23        63.18775
614.66        63.20716
615.09        63.54073
615.52        63.71553
615.96        63.66639
616.39        63.67188
616.82        63.74144
617.25        63.60656
617.68        63.34193
618.11        63.42253
618.54        63.78041
618.97        63.77736
619.40        63.40915
619.84         63.4366
620.27        63.27832
620.70        63.31975
621.13         63.3577
621.56        62.89547
621.99        61.96232
622.42        62.29788
622.85        62.59237
623.28        62.14714
623.71          62.294
624.14          62.872
624.57        63.06141
625.00        63.00666
625.43        63.22139
625.86        63.03761
626.29        62.78316
626.72        62.61152
627.15        62.60753
627.58        62.70034
628.01        62.76906
628.44        62.70107
628.87        62.40298
629.30         62.0158
629.73        62.17693
630.16        62.36101
630.59        62.25017
631.02        62.44033
631.45        62.75343
631.88        62.93258
632.31        62.90807
632.74        63.14721
633.17        62.93795
633.60        62.83956
634.03          62.658
634.46        62.40955
634.89        62.14231
635.32        61.96774
635.75        61.92018
636.18        61.90244
636.61        61.90131
637.04        61.92815
637.47        61.96647
637.89        62.00455
638.32        62.00714
638.75        61.97893
639.18        61.92144
639.61        61.83517
640.04        61.74789
640.47        61.70729
640.90        61.72458
641.33        61.78844
641.76        61.87808
642.18         61.9636
642.61        62.01108
643.04        62.03298
643.47        62.03423
643.90        62.02586
644.33        62.00841
644.76        61.97583
645.18        61.92304
645.61        61.82523
646.04        61.69655
646.47        61.56313
646.90        61.44662
647.33        61.37617
647.75         61.3359
648.18        61.34052
648.61        61.43663
649.04        61.52069
649.47        61.48491
649.89         62.1773
650.32        61.90198
650.75        61.81313
651.18        61.56377
651.61        61.67448
652.03        62.10023
652.46        62.36676
652.89        62.38589
653.32        62.15399
653.74        61.94619
654.17        61.59293
654.60        62.22817
655.03        62.17215
655.46        61.54372
655.88          61.542
656.31        65.09886
656.74        69.88092
657.16         69.2674
657.59        68.46287
658.02        64.44281
658.45        63.35364
658.87        62.38873
659.30        62.31035
659.73        61.94715
660.15        62.91378
660.58        62.09148
661.01        61.93993
661.44         61.6812
661.86        61.52312
662.29        61.39078
662.72        61.77811
663.14         61.4917
663.57         61.4275
664.00        61.33675
664.42         61.4534
664.85        61.78027
665.27         62.1702
665.70        62.46309
666.13        62.53976
666.55        62.37064
666.98        61.91668
667.41        61.32021
667.83         61.2244
668.26        61.05507
668.69        61.24914
669.11        61.52773
669.54        61.74382
669.96        61.85011
670.39        61.89386
670.82        61.90336
671.24         61.9113
671.67        61.93419
672.09        61.88737
672.52        61.81989
672.94        61.89726
673.37        62.07255
673.80        62.05815
674.22        61.88399
674.65        61.80814
675.07        61.86076
675.50        61.87186
675.92        61.83294
676.35        61.79528
676.77        61.76063
677.20        61.71465
677.62        61.67471
678.05        61.66755
678.47        61.69448
678.90        61.75287
679.32        61.81794
679.75        61.86091
680.17        61.86938
680.60        61.85463
681.02        61.83365
681.45        61.83122
681.87        61.86661
682.30        61.91386
682.72        61.97253
683.15        62.02778
683.57        62.07413
684.00        62.05021
684.42        61.99977
684.85        62.04953
685.27        62.20104
685.70        62.39657
686.12        62.55564
686.54        62.61192
686.97        62.54985
687.39        62.30105
687.82        62.09875
688.24        61.95657
688.66        61.96302
689.09        61.97884
689.51        62.14189
689.94        62.22049
690.36        62.24483
690.78        62.22514
691.21         62.2019
691.63        62.22622
692.06        62.31074
692.48        62.44606
692.90        62.56539
693.33        62.57077
693.75        62.44005
694.17        62.17652
694.60        61.90257
695.02        61.80171
695.44        61.88123
695.87        62.15858
696.29        62.48156
696.71        62.27524
697.14        61.69429
697.56        61.59428
697.98         61.9457
698.41        62.25222
698.83        62.02313
699.25        62.12392
699.68        62.34487
700.10        62.40142
700.52        62.24832
700.94        61.98602
701.37        61.74085
701.79        61.70857
702.21        61.92202
702.64        62.29845
703.06        62.70433
703.48        62.90816
703.90        62.85101
704.33        62.60941
704.75         62.2928
705.17        62.07129
705.59        62.00713
706.01        62.04553
706.44        62.16046
706.86        62.33977
707.28        62.54889
707.70        62.75482
708.12        62.93003
708.55        63.11213
708.97        63.24264
709.39        63.09355
709.81        62.74964
710.23        62.59315
710.66        62.67533
711.08        62.83397
711.50        62.96331
711.92        62.97891
712.34        62.85606
712.76        62.63601
713.19        62.39906
713.61        62.31355
714.03        62.40515
714.45        62.62128
714.87        62.90031
715.29        63.15126
715.71        63.33505
716.13        63.46424
716.56        63.51995
716.98        63.55975
717.40        63.56062
717.82        63.51362
718.24        63.40802
718.66        63.23023
719.08        63.00093
719.50        62.75803
719.92        62.55286
720.34        62.45282
720.76        62.47068
721.19         62.5599
721.61        62.73238
722.03        62.95929
722.45        63.20707
722.87        63.46724
723.29        63.65347
723.71        63.63087
724.13        63.38897
724.55        62.98247
724.97        62.54407
725.39        62.29697
725.81        62.30404
726.23        62.48471
726.65         62.7578
727.07        63.12592
727.49        63.30949
727.91        63.51973
728.33        63.69479
728.75        63.84363
729.17        63.95998
729.59        64.04383
730.01        64.08556
730.43        64.01997
730.85        63.88053
731.27        63.81503
731.69        63.80508
732.10        63.69799
732.52        63.49281
732.94        63.29472
733.36        63.16883
733.78        63.05831
734.20        62.96581
734.62        63.12874
735.04        63.57482
735.46        63.16774
735.88         63.7588
736.30        63.81785
736.72        63.92408
737.13         64.0837
737.55        64.23496
737.97        64.45866
738.39        64.63204
738.81        64.29842
739.23        63.62766
739.65        63.55196
740.06        64.00739
740.48        64.17702
740.90        64.01099
741.32        64.01386
741.74        64.19125
742.16        64.27984
742.57        64.26643
742.99        64.21124
743.41        64.13308
743.83        64.04373
744.25        63.95275
744.67        63.83891
745.08        63.74896
745.50        63.73728
745.92        63.81853
746.34        63.97886
746.75        64.13443
747.17        64.13531
747.59        63.96495
748.01        63.66959
748.42        63.37218
748.84        63.28048
749.26        63.43465
749.68        63.73197
750.09        64.05382
750.51         64.2756
750.93        64.31311
751.35        64.10303
751.76        63.72445
752.18        63.42873
752.60        63.26146
753.01        63.12839
753.43         63.0267
753.85         62.9986
754.27        63.04102
754.68        63.19512
755.10        63.43381
755.52         63.4872
755.93        63.67224
756.35        63.71333
756.77        63.76205
757.18        63.83637
757.60        63.96056
758.02        64.19269
758.43        64.45113
758.85        64.18882
759.26        64.46494
759.68        63.74154
760.10        63.65849
760.51        63.62561
760.93        63.96815
761.34        64.06412
761.76        64.21092
762.18        64.19446
762.59        64.17046
763.01        64.19351
763.42        64.31065
763.84        64.33421
764.26         64.2824
764.67        64.20402
765.09         64.1639
765.50        64.18732
765.92         64.2647
766.33        64.21851
766.75        64.00029
767.16          63.819
767.58        63.69267
768.00        63.59955
768.41        63.58717
768.83        63.75318
769.24         64.0032
769.66        64.08557
770.07        63.99658
770.49        63.84557
770.90        63.75589
771.32        64.07076
771.73        64.66819
772.15        64.91319
772.56        64.77061
772.97        64.52566
773.39         64.2735
773.80        64.28598
774.22         64.1904
774.63        64.33654
775.05        64.49538
775.46          64.566
775.88        64.48586
776.29        64.32104
776.70        64.15137
777.12        64.11227
777.53        64.24251
777.95        64.45894
778.36        64.69431
778.77        64.79566
779.19        64.74614
779.60        64.63495
780.02        64.49072
780.43        64.39857
780.84        64.42479
781.26        64.34084
781.67        64.26394
782.09        64.87489
782.50        65.89207
782.91        65.99564
783.33        65.23875
783.74        64.90572
784.15        65.05883
784.57        64.93673
784.98        64.60434
785.39         64.5198
785.81        64.71074
786.22        65.05871
786.63        65.44131
787.04        65.65697
787.46        65.66671
787.87        65.51245
788.28        65.31163
788.70        65.22264
789.11        65.26451
789.52        65.41707
789.93        65.58815
790.35        65.61845
790.76        65.47559
791.17        65.20218
791.58        64.92468
792.00        64.73336
792.41        64.67074
792.82        64.96645
793.23        65.44833
793.65        65.18459
794.06         64.4299
794.47        64.69569
794.88        65.78712
795.29        66.18027
795.71        65.77407
796.12        65.55771
796.53        65.59726
796.94        65.29587
797.35        64.81357
797.76        64.95989
798.18        65.60582
798.59        65.90279
799.00        65.75118
799.41        65.61087
799.82        65.55813
800.23        65.52173
800.64         65.5208
801.06        65.52515
801.47        65.54838
801.88        65.53307
802.29        65.46588
802.70         65.3737
803.11        65.24848
803.52         65.0749
803.93        64.88293
804.34        64.68886
804.75        64.58066
805.17        64.75205
805.58        65.26156
805.99        65.81895
806.40        66.31889
806.81        67.06639
807.22        67.75856
807.63        67.34924
808.04        66.10397
808.45        65.43217
808.86        65.50168
809.27        65.60936
809.68        65.63176
810.09        65.67152
810.50        65.68046
810.91        65.64335
811.32        65.63658
811.73        65.77032
812.14         66.0526
812.55        66.43143
812.96        66.77213
813.37        66.83647
813.78        66.57077
814.19        66.08155
814.60        65.51303
815.01        65.04988
815.42        64.74026
815.83        64.53073
816.24        64.42853
816.65        64.44156
817.05        64.56721
817.46        64.79547
817.87        65.05433
818.28         65.1801
818.69        65.14344
819.10        64.95729
819.51        64.77801
819.92        64.89742
820.33         65.3669
820.74        66.07926
821.14        66.79288
821.55        67.12132
821.96        66.97971
822.37        66.49317
822.78        65.87054
823.19        65.46802
823.60        65.40985
824.00        65.62199
824.41        65.95911
824.82        66.26725
825.23        66.46274
825.64        66.59283
826.04        66.67718
826.45        66.70197
826.86        66.68845
827.27        66.63488
827.68        66.52426
828.08        66.37298
828.49        66.14632
828.90        65.86244
829.31        65.63227
829.72        65.62784
830.12        65.89664
830.53        66.34855
830.94        66.77634
831.35         66.7743
831.75        66.27757
832.16        65.40014
832.57        64.47429
832.97        64.00954
833.38        64.12482
833.79        64.63126
834.20        65.31253
834.60        65.82299
835.01        66.05348
835.42        66.15916
835.82        66.15246
836.23        65.97878
836.64        65.70181
837.04        65.28732
837.45        64.98534
837.86        65.27499
838.26        66.23914
838.67         67.7029
839.08         69.1734
839.48        69.70963
839.89        69.07452
840.29        67.61033
840.70        65.98837
841.11        65.00034
841.51        64.86153
841.92         65.3166
842.33        66.15192
842.73        66.98087
843.14         67.5203
843.54        67.92629
843.95        68.20431
844.35        68.41206
844.76        68.55358
845.17        68.57788
845.57        68.46645
845.98        68.19852
846.38         67.8168
846.79        67.34726
847.19        66.91476
847.60        66.67928
848.00         66.6842
848.41        66.86956
848.81        67.12739
849.22         67.1854
849.62        67.01971
850.03        66.69856
850.43         66.3569
850.84         66.1526
851.24        66.18101
851.65        66.32257
852.05        66.62892
852.46        67.07269
852.86        67.59259
853.27         68.1664
853.67        68.58291
854.07        68.66644
854.48        68.37704
854.88        67.79149
855.29        67.03558
855.69        66.48386
856.10        66.20621
856.50         66.2047
856.90        66.34042
857.31        66.38089
857.71        66.30315
858.12        66.10703
858.52         65.9306
858.92         65.8885
859.33        65.99155
859.73        66.23499
860.13        66.44142
860.54        66.35224
860.94        65.96432
861.34        65.34985
861.75        64.74477
862.15        64.57401
862.55        64.90833
862.96        65.57944
863.36        66.37651
863.76        66.85292
864.17        66.85527
864.57         66.5518
864.97        66.02579
865.38        65.41861
865.78         64.8416
866.18        64.25094
866.58        63.78365
866.99        63.68383
867.39        64.01283
867.79        64.69747
868.19        65.51823
868.60        66.10787
869.00        66.38801
869.40        66.39279
869.80         66.2308
870.21        66.13304
870.61        66.23122
871.01        66.41375
871.41        66.50543
871.81        66.25617
872.22        65.63814
872.62        64.74818
873.02        63.87841
873.42        63.51137
873.82        63.76521
874.22        64.48309
874.63        65.31506
875.03        65.72087
875.43        65.54663
875.83        64.96078
876.23        64.23621
876.63        63.79738
877.03        63.76895
877.44        63.99834
877.84        64.34084
878.24        64.57935
878.64        64.58505
879.04        64.28309
879.44        63.88837
879.84        63.82796
880.24        64.13823
880.64        64.64923
881.04          65.032
881.44        64.78853
881.84        63.84907
882.24        62.42626
882.65        60.99928
883.05        60.29459
883.45        60.49289
883.85        61.38693
884.25        62.60736
884.65         63.5097
885.05        63.86797
885.45        63.84673
885.85        63.64834
886.25        63.59498
886.65        63.77519
887.05        64.06044
887.45        64.32053
887.85        64.36857
888.25        64.16059
888.65        63.79198
889.04        63.38666
889.44         63.1426
889.84        63.09291
890.24        63.16962
890.64        63.28568
891.04        63.30054
891.44        63.18028
891.84        62.99762
892.24        62.78604
892.64        62.58313
893.04        62.42342
893.44        62.30103
893.83        62.30021
894.23        62.51101
894.63        62.94933
895.03        63.55049
895.43         64.1916
895.83        64.67654
896.23        64.92073
896.63        64.94398
897.02        64.75789
897.42        64.42477
897.82        63.99723
898.22        63.51742
898.62         63.0258
899.01        62.56588
899.41        62.18438
899.81        61.86904
900.21        61.71369
900.61        61.85544
901.00        62.28125
901.40        62.91792
901.80        63.53251
902.20        63.75264
902.59         63.5123
902.99        62.92475
903.39        62.21327
903.79          61.754
904.18        61.65425
904.58        61.79843
904.98        62.12259
905.38        62.53226
905.77        62.97327
906.17        63.50571
906.57        63.97905
906.96        64.13409
907.36        63.92105
907.76        63.40791
908.15        62.90708
908.55        62.91527
908.95        63.52791
909.34        64.58479
909.74        65.68291
910.14        66.23421
910.53         66.0479
910.93        65.34501
911.33        64.34652
911.72        63.38232
912.12        62.66139
912.52        62.11363
912.91        61.76621
913.31        61.67411
913.70        61.82609
914.10        62.18695
914.49        62.74949
914.89        63.39345
915.29        64.05599
915.68        64.72414
916.08        65.19556
916.47        65.23218
916.87        64.82883
917.26        64.05781
917.66        63.25217
918.05         62.7853
918.45        62.75093
918.84        63.08957
919.24        63.58063
919.64        63.94693
920.03        64.09549
920.42        64.07484
920.82        64.02021
921.21        64.09055
921.61        64.30641
922.00        64.62635
922.40        64.90358
922.79        65.04125
923.19        64.97117
923.58        64.75425
923.98        64.47981
924.37        64.21317
924.77        63.99815
925.16          63.788
925.55        63.58526
925.95        63.37645
926.34        63.18345
926.74        63.01491
927.13         62.8503
927.52        62.57969
927.92        62.24885
928.31        61.89172
928.70          61.641
929.10        61.67432
929.49        61.99931
929.89        62.48176
930.28         63.1138
930.67        63.77343
931.07        64.34728
931.46        64.92511
931.85        65.24364
932.24        64.93642
932.64        64.04744
933.03         62.7097
933.42        61.47467
933.82         61.1387
934.21        61.84855
934.60        63.40417
934.99        65.28722
935.39        66.53431
935.78        66.85166
936.17        66.39423
936.56        65.52671
936.96        64.84341
937.35         64.5313
937.74        64.42599
938.13        64.29502
938.53        63.81714
938.92        62.96354
939.31        61.92876
939.70        61.01265
940.09        60.59585
940.49        60.72155
940.88        61.28855
941.27        62.06873
941.66        62.63895
942.05        62.85505
942.44        62.84711
942.84        62.75692
943.23         62.8108
943.62        63.07949
944.01        63.42839
944.40         63.8491
944.79        64.36018
945.18        64.90377
945.57        65.46138
945.97        65.78307
946.36        65.54887
946.75        64.69363
947.14        63.41269
947.53        62.03564
947.92        61.01595
948.31        60.48171
948.70        60.32848
949.09        60.48771
949.48        60.81929
949.87        61.23842
950.26        61.77145
950.65        62.33115
951.04        62.77195
951.43        63.04035
951.82        63.12362
952.21        63.07475
952.60        63.01612
952.99        63.00734
953.38        63.05415
953.77        63.13784
954.16        63.22846
954.55        63.30478
954.94        63.32938
955.33        63.39363
955.72        63.64386
956.11        64.07815
956.50         64.6721
956.89        65.06903
957.28        64.68372
957.66        63.45961
958.05        61.68355
958.44         59.9742
958.83        59.21024
959.22        59.54037
959.61        60.69451
960.00        62.17992
960.39        63.05657
960.78        62.99458
961.16         62.2837
961.55        61.29395
961.94        60.48706
962.33        60.03201
962.72        59.80362
963.11        59.79002
963.49        60.02241
963.88        60.40195
964.27        60.91898
964.66        61.57523
965.04        62.40585
965.43        63.32881
965.82        64.33511
966.21        65.06826
966.60        64.90182
966.98        63.72533
967.37        61.87778
967.76        60.00774
968.15        58.89743
968.53        58.70999
968.92        59.30283
969.31        60.31451
969.69        60.99704
970.08         61.0099
970.47        60.54574
970.86        60.12952
971.24        60.54283
971.63        61.92576
972.02        64.05992
972.40        66.23583
972.79        66.82417
973.17        65.47729
973.56        62.81498
973.95        59.98858
974.33        58.46992
974.72        58.54817
975.11        59.79643
975.49        61.62336
975.88        62.79216
976.26         62.8869
976.65        62.25487
977.04        61.31217
977.42        60.66522
977.81        60.47779
978.19        60.49158
978.58        60.71619
978.96        61.17303
979.35        61.77777
979.74        62.57426
980.12        63.38277
980.51        63.61582
980.89        63.28223
981.28        62.53519
981.66        61.71198
982.05         61.2811
982.43         61.3695
982.82        61.80465
983.20        62.62931
983.59        63.78636
983.97        65.23237
984.35         66.9465
984.74        68.38946
985.12        68.91087
985.51        68.31637
985.89        66.80208
986.28        65.10918
986.66        64.30792
987.04        64.69424
987.43         65.9604
987.81        67.52296
988.20        68.10714
988.58        67.35811
988.96        65.66924
989.35        63.67976
989.73        62.25834
990.12        61.62598
990.50        61.56566
990.88        61.78279
991.27        61.80038
991.65        61.47444
992.03        60.97336
992.42         60.6149
992.80        60.79782
993.18        61.59847
993.56        62.86459
993.95        64.10181
994.33        64.60134
994.71        64.05598
995.10        62.83605
995.48        61.43636
995.86        60.65799
996.24        60.67985
996.63        61.10112
997.01        61.92977
997.39        62.80891
997.77         63.4833
998.15        64.17633
998.54        64.41299
998.92        63.35137
999.30        61.14085
999.68        58.13572
1000.06        55.55502
1000.45        55.16141
1000.83         57.3675
1001.21         61.7769
1001.59        67.29367
1001.97        71.09785
1002.35        71.92424
1002.73        70.59007
1003.12        68.23696
1003.50        66.30117
1003.88        65.32185
1004.26        64.64736
1004.64        64.56502
1005.02        65.65865
1005.40        67.86223
1005.78          71.203
1006.16        74.16611
1006.54        74.28392
1006.92         71.3383
1007.30        66.19215
1007.69        60.99499
1008.07        58.71077
1008.45        60.15848
1008.83        64.65148
1009.21        70.71606
1009.59        74.62342
1009.97        74.54638
1010.35        71.61541
1010.73        67.25476
1011.11        63.51197
1011.49        61.13361
1011.86        59.53244
1012.24        58.68908
1012.62        58.62775
1013.00        59.23935
1013.38        60.63512
1013.76        62.59356
1014.14        64.26378
1014.52        65.10468
1014.90        65.13079
1015.28         64.4479
1015.66        63.35115
1016.04        62.04246
1016.41        60.54721
1016.79        59.12896
1017.17        58.38002
1017.55        58.45225
1017.93        59.09671
1018.31        60.21119
1018.69        61.65015
1019.06        63.35006
1019.44        65.48848
1019.82         67.3149
1020.20        67.20242
1020.58        64.79033
1020.95        60.66098
1021.33        56.81408
1021.71        55.39832
1022.09        56.75628
1022.46        60.83415
1022.84        66.18456
1023.22        68.94817
1023.60        67.53367
1023.97        62.84068
1024.35        58.40457
1024.73        58.58587
