SpectraSmart Spectrum 2.9.0.0
--------- Device Information -----------
Spectrum Name :  反射率_0
Saving Time :  2024/04/26 23:57:48
Spectro-Module Model Name : SE2030-DUVN
Spectro-Module Serial Number : OS361AC55029948
Wavelength Start : 200
Wavelength End : 1025
Wavelength Unit : Wavelength(nm)
Spectrum Unit : Reflectance(%)
-----------Spectrum Setting ------------
Integration Time : 20ms
Average : 10
Boxcar : 0
Background removal :  enabled
linearity correction :  enabled
SC :  disabled
Intensity correction :  disabled
DWT denoise :  enabled
savitzky-golay :  disabled
FFT :  disabled
Running average :  disabled
Kalman :  disabled
High pass :  disabled
---------------BEGIN--------------------
Wavelength(nm)             Reflectance(%)
200.29               0
200.75        40.31213
201.21        38.21313
201.67        36.50929
202.13        35.19172
202.58        34.03767
203.04        33.19298
203.50        32.94102
203.96        33.91265
204.42        36.31733
204.88        39.74988
205.34        43.00513
205.80        44.14771
206.26        42.82854
206.72        40.05425
207.18        36.72933
207.64        33.18077
208.10        29.13656
208.55         23.7457
209.01        17.61387
209.47        16.57479
209.93        22.25768
210.39        30.17121
210.85        36.51221
211.31        40.52133
211.77        43.56858
212.23        47.41355
212.69        55.24801
213.14         71.5447
213.60        75.13527
214.06        66.59145
214.52        59.94863
214.98        57.37405
215.44        56.78955
215.90        56.77675
216.36        56.55156
216.81        54.69971
217.27        50.89856
217.73        45.25632
218.19        37.44304
218.65        31.01227
219.11        29.87123
219.57        31.96006
220.02        35.45972
220.48        40.51118
220.94        47.84895
221.40        59.39373
221.86        74.55659
222.32        82.69115
222.77        75.68127
223.23        61.12694
223.69        47.92435
224.15        40.92818
224.61        38.70974
225.06        38.73113
225.52        39.49068
225.98        39.33606
226.44         38.1096
226.90        36.48808
227.36        34.82398
227.81        33.70062
228.27         33.3751
228.73        33.35214
229.19        33.64671
229.65        34.35116
230.10        35.38007
230.56        36.79945
231.02        37.95404
231.48        37.79975
231.93        36.28112
232.39         34.0222
232.85        32.04076
233.31        31.72059
233.77        33.10881
234.22        35.73106
234.68        38.55529
235.14        40.03799
235.60        39.74309
236.05        38.09738
236.51        35.74936
236.97        34.12317
237.43        33.90329
237.88        34.79117
238.34        36.43782
238.80        38.43814
239.26        40.73017
239.71        43.99442
240.17        48.12159
240.63        52.54167
241.08         56.7483
241.54        59.89147
242.00        62.90456
242.46        68.67118
242.91        79.78569
243.37        98.07542
243.83        124.2921
244.28        147.3892
244.74        149.8557
245.20        130.5632
245.66        105.3295
246.11        88.59275
246.57        81.17592
247.03        79.21268
247.48        78.05344
247.94        71.36893
248.40        61.17655
248.85        51.67678
249.31        45.39221
249.77        43.15765
250.22         44.1593
250.68        47.77407
251.14        53.11429
251.59        56.56868
252.05        56.21679
252.51        53.98242
252.96        50.95632
253.42        48.51774
253.88        46.95195
254.33        45.46903
254.79        45.68869
255.25        48.89609
255.70        54.61115
256.16        62.22028
256.62        68.55196
257.07        68.79283
257.53        64.40628
257.99        58.50583
258.44        53.65433
258.90        52.14535
259.35        52.91598
259.81        54.99179
260.27        56.96039
260.72        57.15907
261.18        55.76902
261.63        53.40503
262.09        51.15466
262.55        49.66348
263.00        48.84994
263.46        48.49111
263.91        48.04266
264.37        47.11167
264.83        45.67353
265.28        43.96187
265.74        42.44076
266.19        41.39444
266.65        40.90185
267.11        40.72167
267.56        40.65845
268.02        40.41874
268.47        39.90664
268.93        39.24289
269.38        38.42858
269.84        37.51432
270.30         36.5278
270.75        35.44703
271.21        34.41478
271.66        33.60095
272.12        33.03254
272.57        32.64568
273.03        32.28623
273.48        31.69406
273.94        30.86415
274.39        29.86362
274.85        28.89035
275.31        28.09659
275.76        27.49636
276.22        27.05627
276.67        26.67227
277.13        26.26856
277.58         25.7834
278.04        25.26698
278.49        24.71948
278.95        24.23577
279.40        23.78986
279.86        23.40868
280.31        23.00591
280.77        22.54312
281.22        21.99695
281.68        21.44103
282.13        20.93175
282.59        20.60285
283.04        20.44287
283.50        20.41599
283.95         20.4366
284.41        20.37561
284.86        20.20217
285.32        19.97857
285.77        19.75034
286.22         19.6268
286.68        19.62633
287.13        19.68094
287.59         19.7659
288.04         19.8116
288.50        19.81312
288.95        19.77349
289.41        19.70357
289.86        19.56775
290.32        19.39971
290.77        19.20503
291.22        19.04498
291.68          19.001
292.13        19.08477
292.59        19.29069
293.04        19.58431
293.50        19.92128
293.95        20.27964
294.40        20.67904
294.86        21.12856
295.31        21.63664
295.77        22.21006
296.22        22.82984
296.68        23.50287
297.13        24.23287
297.58        25.02267
298.04        25.87444
298.49         26.7628
298.95        27.66079
299.40        28.55214
299.85        29.44127
300.31        30.35538
300.76        31.32904
301.21         32.3721
301.67        33.49138
302.12        34.62647
302.58        35.74094
303.03        36.80536
303.48        37.85793
303.94        38.97229
304.39        40.22128
304.84        41.63099
305.30         43.1806
305.75        44.77576
306.20        46.33028
306.66        47.82995
307.11        49.28521
307.57        50.74309
308.02        52.20949
308.47        53.70781
308.93        55.22457
309.38         56.7705
309.83        58.44751
310.29        60.26858
310.74        62.20683
311.19        64.12888
311.65        65.78651
312.10        67.09972
312.55        68.11449
313.00        69.02892
313.46        70.17545
313.91        71.61044
314.36        73.25958
314.82        74.89851
315.27        76.16203
315.72        76.94289
316.18        77.37939
316.63         77.6749
317.08        78.18802
317.53        79.01606
317.99        80.04109
318.44         81.1174
318.89        81.98032
319.35        82.54407
319.80         82.8941
320.25        83.13385
320.70         83.4268
321.16         83.8218
321.61        84.29779
322.06        84.76907
322.51        85.10936
322.97        85.27934
323.42        85.33064
323.87        85.39614
324.32        85.70154
324.78        86.26207
325.23        87.07242
325.68         87.8693
326.13        88.22202
326.59        88.03337
327.04        87.45973
327.49        86.82664
327.94         86.6763
328.39        87.13999
328.85        88.03039
329.30        89.14379
329.75        89.89912
330.20        90.10062
330.66        89.88757
331.11        89.52709
331.56        89.38691
332.01         89.5919
332.46        90.01451
332.92        90.47791
333.37        90.82584
333.82        90.95016
334.27         90.9638
334.72        90.96542
335.17        91.08971
335.63        91.37968
336.08        91.82896
336.53        92.41444
336.98        93.14391
337.43        93.98526
337.88        94.90056
338.34        95.79736
338.79        96.62374
339.24        97.29057
339.69        97.80872
340.14         98.1246
340.59        98.17604
341.05        98.01849
341.50        97.69745
341.95        97.41303
342.40        97.46233
342.85        97.91015
343.30        98.66989
343.75        99.58121
344.20        100.3614
344.66         100.911
345.11        101.2969
345.56        101.5455
346.01        101.7146
346.46        101.8507
346.91        101.9385
347.36        102.0347
347.81        102.2465
348.26        102.5806
348.72        102.9946
349.17        103.4331
349.62          103.83
350.07        104.1531
350.52        104.4452
350.97        104.6017
351.42        104.4633
351.87        104.0387
352.32        103.3806
352.77        102.7767
353.22        102.6512
353.67        103.0632
354.13        103.8853
354.58        104.7668
355.03         105.078
355.48        104.6685
355.93        103.7334
356.38        102.6696
356.83         102.081
357.28        102.0908
357.73        102.4844
358.18        102.9426
358.63        102.9535
359.08        102.3808
359.53        101.4184
359.98        100.2814
360.43        99.26981
360.88        98.47362
361.33        97.79276
361.78        97.16904
362.23        96.52561
362.68          95.844
363.13        95.18365
363.58        94.54963
364.03         93.9236
364.48         93.2998
364.93        92.65917
365.38        92.03471
365.83        91.49834
366.28        91.05783
366.73        90.68888
367.18        90.31257
367.63        89.80185
368.08        89.13439
368.53         88.3579
368.98        87.55741
369.43        86.86528
369.88        86.32127
370.33        85.89007
370.78        85.52595
371.23        85.15531
371.68        84.74943
372.13        84.32265
372.58        83.89526
373.03        83.49703
373.48        83.12324
373.93        82.74723
374.38        82.32132
374.83        81.78319
375.28        81.13067
375.72        80.38404
376.17        79.65213
376.62        78.99496
377.07        78.44979
377.52        78.02409
377.97        77.69558
378.42        77.43429
378.87        77.21967
379.32        77.01514
379.77        76.87878
380.22         76.9002
380.67         77.0583
381.11        77.34088
381.56        77.46378
382.01        77.04965
382.46        76.07896
382.91        74.74738
383.36        73.44832
383.81        72.71509
384.26        72.62926
384.71        73.01125
385.15        73.60257
385.60        73.94359
386.05         73.8839
386.50        73.55598
386.95        73.05053
387.40        72.51767
387.85        72.03039
388.29        71.49682
388.74        71.04549
389.19        70.67851
389.64        70.39444
390.09        70.20026
390.54        70.04991
390.98        69.83809
391.43        69.57777
391.88        69.28203
392.33        69.01041
392.78        68.80435
393.23        68.66131
393.67        68.65388
394.12        68.75522
394.57        68.49472
395.02        67.99376
395.47        67.95612
395.91         68.3175
396.36        68.32546
396.81        67.96281
397.26        67.65542
397.71        67.44534
398.15        67.21488
398.60        67.05756
399.05        66.86554
399.50        66.66144
399.95        66.69356
400.39        66.88489
400.84        66.65971
401.29        66.08028
401.74        65.84865
402.18        65.92815
402.63        65.58294
403.08         64.9415
403.53        64.69598
403.97        64.87642
404.42        65.15588
404.87         65.3895
405.32        65.43143
405.76        65.21951
406.21        64.91408
406.66        64.60478
407.11        64.26787
407.55        64.06372
408.00        64.29283
408.45        64.83269
408.90         65.1819
409.34        65.14449
409.79        64.66962
410.24        63.97345
410.68        63.57255
411.13        63.54886
411.58         63.6277
412.03        63.70143
412.47        63.71248
412.92        63.59913
413.37         63.4105
413.81        63.22533
414.26        63.21843
414.71        63.39289
415.15        63.71667
415.60        64.06621
416.05        64.30047
416.49        64.37265
416.94        64.31593
417.39        64.20969
417.83        64.16328
418.28        64.21656
418.73        64.33896
419.17        64.49054
419.62        64.61125
420.07        64.66758
420.51        64.65037
420.96        64.62333
421.41        64.59544
421.85        64.54585
422.30        64.63362
422.74        64.70664
423.19        64.41376
423.64        63.82935
424.08        63.53522
424.53        63.59458
424.98        63.67075
425.42        63.77665
425.87        64.17895
426.31        64.71095
426.76        64.84385
427.21        64.56847
427.65        64.20792
428.10        63.92303
428.54        63.85994
428.99        64.09277
429.44        64.38963
429.88        64.72063
430.33        65.31967
430.77        65.91879
431.22        66.17403
431.66        66.02612
432.11        65.45364
432.56        64.71659
433.00        64.62695
433.45        65.38771
433.89        66.14008
434.34        66.08691
434.78        67.69287
435.23        66.31711
435.67        64.14088
436.12        65.01009
436.57        65.11852
437.01        65.63194
437.46        65.93589
437.90        66.12579
438.35        64.94663
438.79        65.56647
439.24        65.46766
439.68        65.54063
440.13        65.81419
440.57        66.26967
441.02        66.42245
441.46        66.27094
441.91        66.78766
442.35        67.60844
442.80         67.3259
443.24         66.2142
443.69        66.22078
444.13        67.22832
444.58        67.60049
445.02        67.28128
445.47        67.19475
445.91        67.40814
446.36        67.63329
446.80        67.85769
447.24        68.14437
447.69        68.43244
448.13        68.60931
448.58        68.66512
449.02        68.60043
449.47        68.47236
449.91        68.34684
450.36        68.27235
450.80        68.21519
451.25        68.18879
451.69        68.15732
452.13        68.12938
452.58        68.10844
453.02        68.10392
453.47        68.13539
453.91        68.19119
454.36        68.26362
454.80        68.29665
455.24        68.17413
455.69         67.8959
456.13        67.56088
456.58        67.28109
457.02        66.88087
457.46        66.53059
457.91        66.74325
458.35         67.2551
458.79        67.24709
459.24        66.75504
459.68        66.01782
460.13        65.27038
460.57        65.10372
461.01        65.72611
461.46        65.03831
461.90         65.9645
462.34        66.64721
462.79        66.53479
463.23        66.46453
463.68        66.49757
464.12        66.22334
464.56        65.77335
465.01        65.23119
465.45        64.68522
465.89         64.4455
466.34        64.47268
466.78        64.59913
467.22         64.7582
467.67        64.52582
468.11        64.35478
468.55        64.34161
468.99        64.55577
469.44        64.53732
469.88        64.28244
470.32        64.06123
470.77        63.91548
471.21        63.79653
471.65        63.70776
472.10         63.6656
472.54        63.65579
472.98        63.63502
473.42        63.58135
473.87        63.61608
474.31        63.64662
474.75        63.35881
475.20        62.87851
475.64        62.74348
476.08        62.96209
476.52        62.92197
476.97        62.57421
477.41        62.55696
477.85         62.9171
478.29        62.18886
478.74        62.79325
479.18        62.89283
479.62        62.89941
480.06        62.91069
480.50        62.82744
480.95         62.8235
481.39        62.92795
481.83        62.44532
482.27        62.67357
482.72         62.6984
483.16        62.90543
483.60        62.52139
484.04        62.78797
484.48        62.71338
484.93        62.55258
485.37        62.73322
485.81        61.81377
486.25        62.30588
486.69        63.71463
487.14         64.4504
487.58        62.42575
488.02        62.77561
488.46        62.13992
488.90        61.70384
489.34        62.44906
489.79        63.35379
490.23        62.96209
490.67        62.43247
491.11        61.55547
491.55        61.34719
491.99        61.72935
492.43        61.68916
492.88        61.22611
493.32        61.04705
493.76        61.19644
494.20        61.33664
494.64        61.44065
495.08        61.64973
495.52         61.8741
495.96        61.87071
496.41        61.68113
496.85        61.55732
497.29        61.44495
497.73        61.58089
498.17        61.16344
498.61        60.95868
499.05        60.79742
499.49        60.95966
499.93        61.17412
500.37         61.3968
500.82        61.51532
501.26        61.57631
501.70          61.557
502.14        61.56765
502.58        61.58425
503.02        61.38388
503.46        61.65234
503.90        61.84036
504.34         62.0534
504.78         62.0276
505.22        61.75394
505.66        61.43938
506.10          61.178
506.54         60.9395
506.98        60.74379
507.42        60.92223
507.86        60.97581
508.30        60.99009
508.74        61.11012
509.18         61.1247
509.62        61.12621
510.06        61.11221
510.50        61.09313
510.94        61.05139
511.38        60.99633
511.82        60.95787
512.26        60.94365
512.70         60.9531
513.14        60.97705
513.58        60.99725
514.02        61.00801
514.46        61.00994
514.90        61.01535
515.34        61.04506
515.78        61.09708
516.22        61.15875
516.66        61.20032
517.10        61.17529
517.54        61.07992
517.98        60.94014
518.42        60.78761
518.86         60.6726
519.30        60.61243
519.74        60.58885
520.18        60.60941
520.62        60.68266
521.06        60.80137
521.50        60.96728
521.93        61.12802
522.37        61.17784
522.81        61.10751
523.25        60.94036
523.69        60.76489
524.13        60.72392
524.57        60.83982
525.01        61.05994
525.45         61.2879
525.89        61.36653
526.32         61.2515
526.76        61.01709
527.20        60.72772
527.64        60.48806
528.08        60.33737
528.52        60.24562
528.96        60.21274
529.40        60.23844
529.83        60.30968
530.27        60.43501
530.71        60.57198
531.15        60.65559
531.59        60.67188
532.03        60.62406
532.46         60.5362
532.90        60.51238
533.34        60.56052
533.78        60.55288
534.22        60.57503
534.66        60.57235
535.09        60.52682
535.53        60.31833
535.97        59.99104
536.41        59.76636
536.85        59.67271
537.28        59.59828
537.72        59.56577
538.16        59.65562
538.60        59.85683
539.04        60.13781
539.47         60.4004
539.91        60.53277
540.35        60.49918
540.79        60.33963
541.22        60.12872
541.66        60.01105
542.10        60.01506
542.54        60.09354
542.97        60.19334
543.41        60.25767
543.85        60.25662
544.29         60.2277
544.72        60.15859
545.16        60.05745
545.60        59.92385
546.04        59.77494
546.47        59.66801
546.91        59.66173
547.35        59.77505
547.79        60.04914
548.22        60.38906
548.66        60.51604
549.10        60.44971
549.53        60.36297
549.97        60.35063
550.41        59.84136
550.84        59.84114
551.28        59.78185
551.72        59.87206
552.15        59.95262
552.59        60.22465
553.03        59.70858
553.46         60.2251
553.90        60.19385
554.34        60.13394
554.77        60.04498
555.21        59.99314
555.65        60.01463
556.08        60.08223
556.52        60.22206
556.96        60.37614
557.39        60.33706
557.83        60.30074
558.27        60.18947
558.70        59.82979
559.14        59.67108
559.57        59.63848
560.01        59.57301
560.45        59.50605
560.88        59.68636
561.32        60.04583
561.75        60.21264
562.19        60.17465
562.63        60.02936
563.06        59.86001
563.50        59.87838
563.93         60.0059
564.37        60.05804
564.80        60.03601
565.24        59.90924
565.68        59.57958
566.11        60.17702
566.55        59.55235
566.98        59.40555
567.42        59.24148
567.85        59.41653
568.29        59.87117
568.72        60.19601
569.16        60.43078
569.60        60.57252
570.03        60.69903
570.47        60.88625
570.90        61.22813
571.34        60.45984
571.77        60.83229
572.21        61.28923
572.64        60.74974
573.08        61.29053
573.51        60.49984
573.95        60.59135
574.38        61.11405
574.82        61.21969
575.25        60.94611
575.69        61.26291
576.12        61.07816
576.56        60.29713
576.99        60.58843
577.42        60.92208
577.86        60.87314
578.29        61.54852
578.73        61.65597
579.16        61.54587
579.60        60.97565
580.03        60.84373
580.47        60.91752
580.90        61.45018
581.33        61.62988
581.77        61.58319
582.20        61.61756
582.64        62.01427
583.07        61.54119
583.51        61.20557
583.94         60.8743
584.37        60.79003
584.81        61.03452
585.24        61.30962
585.68        61.44997
586.11         61.4085
586.54        61.34325
586.98        60.58659
587.41        59.91149
587.85        60.71535
588.28        60.70639
588.71        60.31976
589.15        60.21201
589.58        60.48806
590.01        60.10775
590.45        60.07195
590.88        60.99615
591.31        60.93864
591.75        60.35553
592.18        60.00206
592.61        60.01881
593.05        60.74611
593.48        61.19853
593.91        60.95455
594.35         60.8711
594.78        60.22646
595.21        59.92734
595.65        60.21768
596.08        61.23792
596.51        61.04389
596.94        60.61985
597.38        60.25183
597.81        60.25137
598.24        61.06251
598.68        60.41988
599.11          60.334
599.54         61.3773
599.97        60.83714
600.41        60.50426
600.84        60.03059
601.27        60.81025
601.70         59.8536
602.14        60.68222
602.57         60.1962
603.00        60.09341
603.43        59.84943
603.87        60.44277
604.30        60.59998
604.73        60.59524
605.16        59.83433
605.60        59.82102
606.03        59.55249
606.46        59.40287
606.89        59.75956
607.32        60.22472
607.76         59.6015
608.19        60.17488
608.62        59.97589
609.05        59.82107
609.48         59.6914
609.92        60.46569
610.35        60.02563
610.78        59.91048
611.21         59.9637
611.64        59.81355
612.07          59.975
612.50        59.90167
612.94        59.87529
613.37        59.74623
613.80        59.77256
614.23        59.24285
614.66         59.2488
615.09        59.77312
615.52        59.97959
615.96        59.87536
616.39        59.85774
616.82        59.94549
617.25        59.71914
617.68        59.33513
618.11        59.43423
618.54        59.93139
618.97        59.93832
619.40        59.45496
619.84        59.44909
620.27        59.39605
620.70         59.4564
621.13        59.40218
621.56         59.0368
621.99        58.45489
622.42        58.35775
622.85        58.66605
623.28        58.56492
623.71        58.65475
624.14        58.73965
624.57        59.29168
625.00        58.76848
625.43        59.27203
625.86        59.03853
626.29        58.67985
626.72        58.94499
627.15        58.69888
627.58        58.85741
628.01        58.97551
628.44         58.9311
628.87        58.69621
629.30        58.53202
629.73         58.4889
630.16        58.51448
630.59        58.53194
631.02        58.68508
631.45        58.89608
631.88        59.03203
632.31        59.06083
632.74        59.01955
633.17        58.93012
633.60        58.83002
634.03        58.73892
634.46        58.63822
634.89        58.53811
635.32        58.47256
635.75        58.44897
636.18        58.40073
636.61        58.33778
637.04        58.30958
637.47        58.31536
637.89        58.33332
638.32        58.32724
638.75         58.2968
639.18        58.24024
639.61        58.16252
640.04        58.08709
640.47        58.05083
640.90        58.06336
641.33        58.11694
641.76        58.19139
642.18        58.25983
642.61        58.29139
643.04        58.29425
643.47        58.28472
643.90        58.29182
644.33        58.31735
644.76        58.35192
645.18          58.362
645.61        58.27754
646.04        58.10386
646.47        57.87937
646.90         57.6679
647.33        57.56569
647.75        57.57394
648.18        57.69178
648.61        57.91508
649.04        58.06112
649.47        58.02123
649.89        58.62341
650.32        58.29045
650.75        58.20393
651.18        57.99395
651.61        57.94437
652.03        58.05223
652.46        58.13605
652.89        58.18372
653.32        58.10712
653.74        57.99889
654.17        58.04877
654.60        58.27554
655.03        58.23944
655.46        57.74144
655.88         58.0982
656.31        60.74237
656.74        63.82544
657.16        63.18307
657.59        62.65396
658.02        59.80903
658.45        59.14476
658.87         58.7583
659.30        58.63412
659.73        58.17635
660.15        59.38212
660.58        58.49244
661.01        58.37484
661.44        58.04756
661.86        57.73386
662.29        57.43224
662.72        57.88236
663.14        57.89908
663.57        57.82865
664.00         57.4607
664.42        57.46674
664.85        57.86472
665.27        58.25085
665.70        58.48335
666.13        58.59108
666.55        58.54742
666.98        58.27593
667.41        57.85629
667.83        57.80756
668.26        57.57288
668.69        57.60093
669.11        57.69347
669.54         57.8025
669.96        57.90339
670.39        58.04415
670.82        58.20499
671.24         58.2308
671.67        58.16033
672.09        58.18548
672.52        58.28251
672.94        58.27175
673.37        58.17103
673.80        57.82045
674.22         57.7849
674.65        57.68965
675.07        57.71701
675.50        57.83673
675.92        57.99091
676.35        58.06241
676.77        58.02012
677.20        57.89452
677.62        57.74815
678.05        57.68493
678.47        57.72646
678.90        57.84213
679.32         57.9669
679.75        58.01113
680.17        57.95335
680.60         57.8322
681.02        57.70704
681.45        57.67423
681.87        57.76696
682.30        57.91425
682.72        58.08873
683.15        58.27254
683.57        58.41484
684.00        58.40756
684.42        58.22561
684.85        58.19788
685.27        58.31364
685.70        58.44717
686.12        58.54628
686.54        58.59661
686.97        58.58113
687.39        58.51915
687.82        58.41727
688.24        58.30746
688.66        58.20451
689.09        58.08161
689.51        57.98126
689.94         57.9961
690.36        58.11213
690.78        58.18144
691.21        58.19846
691.63        58.25512
692.06        58.34225
692.48        58.39217
692.90        58.37259
693.33        58.28624
693.75        58.13694
694.17        57.89837
694.60        57.67412
695.02        57.64867
695.44        57.82653
695.87        58.14999
696.29        58.49759
696.71        58.51064
697.14        58.23819
697.56        58.12477
697.98        58.21748
698.41        58.23717
698.83        58.18303
699.25        58.28029
699.68        58.43735
700.10        58.44408
700.52        58.25765
700.94         57.9601
701.37        57.66936
701.79        57.57637
702.21        57.71506
702.64        58.00853
703.06        58.35065
703.48        58.55167
703.90        58.55813
704.33        58.43336
704.75        58.23982
705.17        58.07098
705.59        57.96762
706.01        57.89693
706.44        57.87914
706.86          57.953
707.28        58.10081
707.70        58.35024
708.12        58.63168
708.55        58.73348
708.97        58.67078
709.39        58.66202
709.81        58.72189
710.23        58.71257
710.66        58.64061
711.08        58.61936
711.50        58.62643
711.92        58.59041
712.34        58.51034
712.76        58.41723
713.19        58.33012
713.61        58.31057
714.03        58.35874
714.45        58.46062
714.87        58.59464
715.29        58.73146
715.71         58.8537
716.13        58.95166
716.56        59.01483
716.98           59.11
717.40        59.21025
717.82        59.30516
718.24        59.34263
718.66        59.24035
719.08        59.00422
719.50        58.68634
719.92        58.38484
720.34        58.24531
720.76        58.29836
721.19        58.47593
721.61        58.74613
722.03        59.00842
722.45        59.21007
722.87        59.36791
723.29        59.43365
723.71        59.33347
724.13        59.07549
724.55        58.69416
724.97        58.29789
725.39         58.0727
725.81         58.0683
726.23        58.21621
726.65        58.44706
727.07        58.77095
727.49        58.93139
727.91        59.12382
728.33        59.28005
728.75        59.40014
729.17        59.47961
729.59        59.50006
730.01        59.47975
730.43        59.45671
730.85        59.44012
731.27        59.42665
731.69        59.39459
732.10        59.30325
732.52        59.15048
732.94        58.96982
733.36        58.81968
733.78        58.68357
734.20        58.57623
734.62         58.6869
735.04        59.04507
735.46        58.67609
735.88        59.31712
736.30        59.23493
736.72        59.48764
737.13         59.6157
737.55         59.7112
737.97         59.8636
738.39        59.98372
738.81          59.615
739.23        58.95063
739.65        59.00489
740.06        59.65095
740.48        59.90622
740.90        59.70464
741.32        59.61503
741.74        59.69731
742.16        59.76074
742.57        59.81362
742.99        59.89067
743.41        59.94846
743.83        59.90435
744.25        59.74971
744.67        59.50088
745.08        59.25349
745.50        59.14317
745.92        59.21064
746.34        59.41391
746.75        59.65261
747.17        59.75178
747.59        59.67461
748.01        59.47116
748.42        59.24249
748.84        59.14978
749.26        59.22904
749.68        59.42342
750.09        59.63806
750.51        59.72224
750.93        59.64029
751.35        59.46586
751.76         59.2486
752.18        59.05603
752.60        58.91316
753.01        58.82631
753.43        58.76485
753.85        58.69938
754.27        58.63344
754.68        58.59655
755.10        58.61728
755.52        58.72943
755.93        58.91593
756.35        59.14232
756.77        59.42084
757.18        59.59735
757.60        59.62462
758.02        59.90337
758.43        60.38258
758.85        59.49197
759.26        59.42793
759.68        59.14315
760.10        59.22005
760.51        59.60073
760.93        60.09068
761.34        59.33577
761.76        59.76363
762.18        59.70907
762.59        59.90956
763.01        59.95079
763.42        59.91615
763.84        59.94701
764.26        60.03287
764.67        60.19031
765.09        60.33627
765.50        60.04878
765.92        59.49626
766.33        59.27855
766.75        59.34608
767.16        59.41232
767.58        59.17319
768.00        59.06543
768.41        59.08401
768.83        59.41656
769.24        59.91026
769.66        59.96814
770.07        59.63535
770.49        59.46937
770.90        59.55256
771.32        59.76363
771.73        60.03035
772.15        60.12855
772.56         60.0475
772.97        59.91379
773.39        59.79195
773.80        59.73547
774.22        59.74686
774.63        59.85961
775.05        59.97886
775.46        60.01443
775.88        59.92123
776.29        59.75708
776.70        59.60151
777.12        59.60362
777.53        59.79473
777.95         60.0757
778.36        60.37671
778.77        60.54955
779.19        60.57285
779.60        60.52215
780.02        60.37289
780.43        60.20078
780.84        60.06439
781.26        59.57413
781.67        58.98199
782.09        59.55153
782.50        60.91957
782.91        61.02246
783.33        59.94296
783.74        59.59733
784.15        60.06084
784.57        60.19653
784.98        60.00085
785.39        60.00053
785.81        60.20607
786.22        60.46884
786.63        60.73461
787.04        60.92034
787.46        61.00815
787.87        61.01162
788.28         60.9691
788.70          60.914
789.11        60.84634
789.52        60.79207
789.93        60.73688
790.35        60.64744
790.76        60.53102
791.17        60.39251
791.58        60.29706
792.00        60.26882
792.41        60.32467
792.82        60.61902
793.23        60.99544
793.65        60.86344
794.06        60.42219
794.47        60.51205
794.88        60.95528
795.29        61.71651
795.71        60.97081
796.12        60.80234
796.53        60.77011
796.94        60.60891
797.35        60.40606
797.76        60.62178
798.18        61.13018
798.59        61.33692
799.00        61.15865
799.41        60.88218
799.82        60.63013
800.23        60.50108
800.64        60.54072
801.06        60.67963
801.47        60.87759
801.88        60.98853
802.29        60.96446
802.70        60.84761
803.11         60.6697
803.52        60.48111
803.93        60.32744
804.34        60.20686
804.75         60.1423
805.17        60.23018
805.58        60.51382
805.99         60.7276
806.40        60.87557
806.81        61.47451
807.22        62.25116
807.63        62.03619
808.04        60.99572
808.45         60.4422
808.86        60.50197
809.27        60.47821
809.68        60.32421
810.09        60.30083
810.50        60.40305
810.91        60.55921
811.32        60.78614
811.73        61.10675
812.14        61.49957
812.55         61.9422
812.96         62.3148
813.37        62.40048
813.78        62.15765
814.19         61.6825
814.60        61.12707
815.01        60.69256
815.42         60.4324
815.83        60.29583
816.24        60.28289
816.65        60.38004
817.05        60.56913
817.46         60.8355
817.87        61.11026
818.28        61.24179
818.69        61.20211
819.10        61.00333
819.51        60.77467
819.92        60.76509
820.33        61.02703
820.74        61.47439
821.14        61.93219
821.55        62.11536
821.96        61.95854
822.37        61.55986
822.78        61.05607
823.19        60.67842
823.60        60.51348
824.00        60.51733
824.41        60.61162
824.82        60.74982
825.23        60.89124
825.64        61.06435
826.04        61.24105
826.45        61.33308
826.86        61.33878
827.27        61.27002
827.68         61.1758
828.08        61.17757
828.49        61.25537
828.90        61.38591
829.31        61.54927
829.72        61.71097
830.12        61.87274
830.53        62.00381
830.94         62.0529
831.35        61.89326
831.75         61.5338
832.16        60.99987
832.57        60.47695
832.97        60.23699
833.38        60.33569
833.79        60.67552
834.20        61.10882
834.60        61.39335
835.01        61.46244
835.42        61.42361
835.82        61.32343
836.23        61.17996
836.64        61.05301
837.04        60.89663
837.45        60.84444
837.86        61.17271
838.26        61.92612
838.67        62.99368
839.08        64.01845
839.48        64.32055
839.89        63.73773
840.29        62.50613
840.70        61.19983
841.11        60.48795
841.51        60.53823
841.92        61.14652
842.33        62.03251
842.73        62.68649
843.14        62.83017
843.54        62.65528
843.95        62.35512
844.35        62.28875
844.76        62.52031
845.17        62.90918
845.57        63.26294
845.98        63.25639
846.38        62.84674
846.79         62.1741
847.19        61.43576
847.60        60.91584
848.00        60.71273
848.41        60.70228
848.81        60.86437
849.22         61.0877
849.62        61.34641
850.03        61.67354
850.43        61.95205
850.84        61.92646
851.24        61.60192
851.65        60.97059
852.05        60.38256
852.46        60.37371
852.86        61.04269
853.27         62.1797
853.67        63.30478
854.07        63.85875
854.48        63.71502
854.88        63.06889
855.29        62.15724
855.69        61.53373
856.10        61.33319
856.50        61.46717
856.90        61.73997
857.31        61.84037
857.71        61.71775
858.12        61.43096
858.52         61.1223
858.92        60.90687
859.33        60.81376
859.73        60.82483
860.13        60.84573
860.54        60.75755
860.94         60.5691
861.34        60.31484
861.75        60.07316
862.15        60.00085
862.55         60.1154
862.96        60.33669
863.36        60.62223
863.76        60.83003
864.17        60.89575
864.57        60.88027
864.97         60.7621
865.38        60.52078
865.78        60.19724
866.18        59.79449
866.58        59.40945
866.99        59.21465
867.39        59.27865
867.79        59.55894
868.19        59.95205
868.60        60.26875
869.00        60.47822
869.40        60.59211
869.80        60.66784
870.21        60.81128
870.61        61.08809
871.01        61.40472
871.41        61.61084
871.81        61.50775
872.22        61.07064
872.62        60.35594
873.02        59.59786
873.42        59.19329
873.82        59.24593
874.22        59.64843
874.63        60.11468
875.03        60.19678
875.43        59.78904
875.83        59.05732
876.23        58.28022
876.63         57.8855
877.03        57.98093
877.44        58.38977
877.84        58.94861
878.24        59.41222
878.64        59.62191
879.04        59.49872
879.44        59.19304
879.84        59.06006
880.24        59.14364
880.64        59.28226
881.04        59.32571
881.44        59.08374
881.84        58.53058
882.24        57.77065
882.65         57.0107
883.05        56.54702
883.45        56.46109
883.85        56.67716
884.25         57.0581
884.65        57.36069
885.05          57.498
885.45        57.53004
885.85        57.52945
886.25        57.61325
886.65        57.80955
887.05        58.06398
887.45        58.31065
887.85        58.45469
888.25        58.46648
888.65        58.37788
889.04        58.24697
889.44        58.18777
889.84        58.21401
890.24        58.29379
890.64        58.36869
891.04        58.34458
891.44        58.20887
891.84         58.0162
892.24         57.8274
892.64        57.71953
893.04        57.72929
893.44        57.85216
893.83        58.09416
894.23        58.41597
894.63        58.80189
895.03        59.20505
895.43        59.62679
895.83        60.08061
896.23        60.52324
896.63        60.91705
897.02        61.08768
897.42        60.80006
897.82        60.05429
898.22         58.9997
898.62         57.9099
899.01          57.172
899.41        56.90971
899.81         57.0214
900.21         57.3905
900.61        57.81414
901.00        58.18666
901.40        58.51546
901.80        58.79044
902.20        58.99825
902.59        59.13821
902.99        59.20166
903.39        59.11126
903.79        58.76299
904.18        58.17908
904.58        57.43414
904.98        56.80482
905.38        56.70333
905.77         57.1917
906.17        58.15965
906.57        59.23583
906.96         59.7902
907.36        59.64016
907.76          58.967
908.15        58.16316
908.55        57.84475
908.95         58.1738
909.34        58.96627
909.74         59.8451
910.14        60.27317
910.53        60.07962
910.93        59.47837
911.33        58.71849
911.72        58.15865
912.12        57.96181
912.52        58.00306
912.91        58.16369
913.31         58.2887
913.70        58.32898
914.10         58.3116
914.49        58.35374
914.89        58.56435
915.29        58.97469
915.68        59.53824
916.08        60.02025
916.47        60.10624
916.87        59.75164
917.26        59.04043
917.66        58.31859
918.05        57.98021
918.45        58.11198
918.84        58.64648
919.24        59.26709
919.64        59.53717
920.03         59.3489
920.42        58.81105
920.82        58.26293
921.21        58.17679
921.61        58.63602
922.00        59.50756
922.40        60.43483
922.79        60.92034
923.19        60.77911
923.58        60.20809
923.98        59.47387
924.37        58.90366
924.77         58.6193
925.16        58.49833
925.55        58.49726
925.95        58.53096
926.34        58.56963
926.74        58.62829
927.13        58.67729
927.52         58.5884
927.92        58.38608
928.31         58.0913
928.70        57.78269
929.10        57.56636
929.49        57.45717
929.89        57.36882
930.28        57.40855
930.67        57.65903
931.07        58.08553
931.46        58.73524
931.85        59.28215
932.24        59.23394
932.64        58.56716
933.03        57.42401
933.42        56.33981
933.82        56.09834
934.21        56.84379
934.60        58.37018
934.99        60.15239
935.39        61.22899
935.78        61.33232
936.17        60.65956
936.56        59.64433
936.96         58.9784
937.35        58.86145
937.74         59.0752
938.13        59.34843
938.53         59.2901
938.92        58.81181
939.31        58.10233
939.70        57.36637
940.09        56.85093
940.49        56.59705
940.88        56.54612
941.27        56.62831
941.66        56.72045
942.05        56.78419
942.44        56.88433
942.84        57.04436
943.23        57.27953
943.62        57.58997
944.01        57.90268
944.40        58.23849
944.79        58.66442
945.18        59.14208
945.57        59.61781
945.97        59.86128
946.36        59.59172
946.75        58.76154
947.14        57.58055
947.53        56.33388
947.92        55.40006
948.31        54.89967
948.70        54.73912
949.09        54.93303
949.48        55.48684
949.87        56.32343
950.26        57.39336
950.65        58.44984
951.04        59.09129
951.43        59.19516
951.82        58.83282
952.21        58.17214
952.60        57.52846
952.99        57.05127
953.38        56.71928
953.77        56.53807
954.16        56.49768
954.55        56.57917
954.94        56.77314
955.33        57.11261
955.72        57.62371
956.11        58.25662
956.50        58.96622
956.89          59.473
957.28        59.34615
957.66        58.52659
958.05        57.21649
958.44        55.85468
958.83        55.06465
959.22        54.97555
959.61        55.43449
960.00        56.14304
960.39        56.53053
960.78        56.40578
961.16        55.93599
961.55        55.39909
961.94        55.13954
962.33         55.2576
962.72        55.66409
963.11        56.18514
963.49        56.53168
963.88        56.53644
964.27         56.2811
964.66        56.04713
965.04        56.28068
965.43        57.00714
965.82        58.14127
966.21        59.20845
966.60        59.30952
966.98         58.2299
967.37        56.39266
967.76        54.51612
968.15        53.48614
968.53        53.46984
968.92        54.23452
969.31        55.37856
969.69        56.08909
970.08        56.00819
970.47        55.40973
970.86        54.74012
971.24         54.6367
971.63        55.23165
972.02        56.30503
972.40        57.50259
972.79         57.9352
973.17        57.41616
973.56        56.30489
973.95        55.06977
974.33        54.27883
974.72        54.07687
975.11        54.25149
975.49         54.7535
975.88        55.43288
976.26        56.19476
976.65        57.02599
977.04        57.69858
977.42        57.83302
977.81        57.34568
978.19        56.30503
978.58        55.16272
978.96         54.6342
979.35        54.87004
979.74        55.70093
980.12        56.74953
980.51        57.10244
980.89        56.64965
981.28        55.70205
981.66        54.68481
982.05        54.14591
982.43        54.24298
982.82        54.74696
983.20         55.6816
983.59        57.01105
983.97        58.65567
984.35        60.57465
984.74        62.20337
985.12        62.83435
985.51        62.26764
985.89        60.74935
986.28        58.98021
986.66         57.9648
987.04        58.01731
987.43        58.85028
987.81        60.09682
988.20        60.91253
988.58        60.97732
988.96        60.47292
989.35        59.63444
989.73         58.7774
990.12        58.01239
990.50        57.31507
990.88        56.54134
991.27        55.54191
991.65         54.3771
992.03        53.15054
992.42         52.3544
992.80         52.6257
993.18        54.04028
993.56        56.46499
993.95        59.03153
994.33        60.20667
994.71        59.43043
995.10        57.24969
995.48        54.77282
995.86        53.73068
996.24        54.52495
996.63        56.58844
997.01        59.33714
997.39        61.19431
997.77        61.46169
998.15        60.71719
998.54        59.30444
998.92        57.59615
999.30        55.94305
999.68        54.26327
1000.06        53.05893
1000.45        53.04734
1000.83        54.40945
1001.21        57.07044
1001.59        60.45333
1001.97        62.95364
1002.35        63.82744
1002.73        63.42609
1003.12        62.44146
1003.50        61.74783
1003.88        61.68644
1004.26        61.84512
1004.64         62.2018
1005.02        62.71152
1005.40        63.25999
1005.78         64.0746
1006.16        64.54886
1006.54        63.65128
1006.92         61.4109
1007.30        58.24121
1007.69        55.43017
1008.07        54.66444
1008.45        56.41827
1008.83        60.29263
1009.21        65.17194
1009.59        68.22572
1009.97        68.06174
1010.35        65.49696
1010.73        61.65624
1011.11        58.19152
1011.49        55.76602
1011.86        54.01433
1012.24        53.01937
1012.62        52.91457
1013.00        53.62444
1013.38         55.1967
1013.76        57.41486
1014.14        59.42102
1014.52        60.63574
1014.90        61.07773
1015.28         60.7168
1015.66        59.70569
1016.04        58.19698
1016.41        56.13012
1016.79        54.03747
1017.17        52.98228
1017.55        53.25423
1017.93         54.6274
1018.31        56.31914
1018.69        57.15926
1019.06        56.86962
1019.44        55.62816
1019.82         54.0093
1020.20        53.40615
1020.58        54.24831
1020.95        55.87737
1021.33        57.43551
1021.71        57.83937
1022.09        56.95044
1022.46        55.16138
1022.84        52.79762
1023.22         50.9165
1023.60        50.22507
1023.97        50.30216
1024.35         51.2608
1024.73        53.07538
