SpectraSmart Spectrum 2.9.0.0
--------- Device Information -----------
Spectrum Name :  反射率_0
Saving Time :  2024/04/26 23:49:15
Spectro-Module Model Name : SE2030-DUVN
Spectro-Module Serial Number : OS361AC55029948
Wavelength Start : 200
Wavelength End : 1025
Wavelength Unit : Wavelength(nm)
Spectrum Unit : Reflectance(%)
-----------Spectrum Setting ------------
Integration Time : 20ms
Average : 10
Boxcar : 0
Background removal :  enabled
linearity correction :  enabled
SC :  disabled
Intensity correction :  disabled
DWT denoise :  enabled
savitzky-golay :  disabled
FFT :  disabled
Running average :  disabled
Kalman :  disabled
High pass :  disabled
---------------BEGIN--------------------
Wavelength(nm)             Reflectance(%)
200.29               0
200.75        51.96554
201.21          47.451
201.67        43.97007
202.13         42.7798
202.58        43.81086
203.04        47.31916
203.50        53.07549
203.96        58.82364
204.42        62.59688
204.88        64.14082
205.34        63.98914
205.80        64.28513
206.26        65.37272
206.72        65.83253
207.18        65.40628
207.64        63.80962
208.10        60.78728
208.55         56.6479
209.01        49.77929
209.47        41.33373
209.93         35.7316
210.39        33.78013
210.85        34.21644
211.31        36.07272
211.77        39.76311
212.23        48.08569
212.69        69.79836
213.14        111.7408
213.60        118.7757
214.06        96.00982
214.52        77.60287
214.98        67.43911
215.44        60.89158
215.90         54.5881
216.36        49.53453
216.81         47.9679
217.27        51.04835
217.73        60.43229
218.19        74.44304
218.65        79.98316
219.11        72.17999
219.57        59.47711
220.02        51.08092
220.48        51.87711
220.94        61.26174
221.40        80.24062
221.86        107.2935
222.32        122.3699
222.77        110.3082
223.23        85.31989
223.69        62.99623
224.15        51.65813
224.61        48.74099
225.06        49.58012
225.52        51.43562
225.98        51.46106
226.44        49.43805
226.90        46.63511
227.36        43.79295
227.81        42.10498
228.27        41.98906
228.73        42.51417
229.19        43.58998
229.65        45.30874
230.10        47.45717
230.56        50.07484
231.02        52.08915
231.48        51.76237
231.93        49.08418
232.39        45.20344
232.85        41.61958
233.31        40.30327
233.77        41.41438
234.22        44.23883
234.68        47.82795
235.14        50.78043
235.60        52.61568
236.05        53.82291
236.51        54.43451
236.97        54.56065
237.43        54.34937
237.88        53.64446
238.34        52.97971
238.80        53.65912
239.26        56.22385
239.71        61.29009
240.17        68.22607
240.63        74.64469
241.08        78.84513
241.54        80.15809
242.00        80.48728
242.46        84.65332
242.91        96.41736
243.37        117.7025
243.83        150.1324
244.28        181.8573
244.74         191.548
245.20        175.9502
245.66        151.0374
246.11        133.2164
246.57        124.2281
247.03        119.7927
247.48        114.9649
247.94        104.0082
248.40        90.23855
248.85        78.28548
249.31        70.63076
249.77        67.54675
250.22        67.93597
250.68        70.97974
251.14        76.00964
251.59         79.9691
252.05        80.88203
252.51        80.27377
252.96        78.10907
253.42         75.0416
253.88         71.6293
254.33        67.60744
254.79        65.67264
255.25        67.89079
255.70        73.59043
256.16        81.70625
256.62        88.35298
257.07        87.83742
257.53        81.97032
257.99          74.466
258.44        68.20877
258.90        65.72771
259.35         65.7856
259.81        67.37977
260.27        68.94972
260.72        68.72176
261.18          66.938
261.63        64.16939
262.09        61.70663
262.55        60.33088
263.00        59.87192
263.46        60.03534
263.91        59.96677
264.37         58.9475
264.83        56.96416
265.28        54.43021
265.74        52.13456
266.19        50.71643
266.65        50.30482
267.11        50.50616
267.56        50.92259
268.02        50.94249
268.47        50.37878
268.93        49.47136
269.38        48.33799
269.84        47.21371
270.30        46.17838
270.75        45.14072
271.21        44.20144
271.66        43.46882
272.12        42.94352
272.57        42.56659
273.03        42.20152
273.48        41.59584
273.94        40.75673
274.39        39.75058
274.85        38.73246
275.31        37.77108
275.76        36.88659
276.22        36.09056
276.67        35.40176
277.13        34.95194
277.58        34.66883
278.04        34.51477
278.49        34.30202
278.95        33.87219
279.40        33.15658
279.86        32.32234
280.31        31.39697
280.77         30.5312
281.22        29.74556
281.68        29.06202
282.13        28.53461
282.59        28.32571
283.04        28.38946
283.50        28.68661
283.95        29.02183
284.41        29.08757
284.86        28.82177
285.32        28.36025
285.77        27.86032
286.22        27.61499
286.68        27.67881
287.13        27.90733
287.59        28.22736
288.04        28.48196
288.50        28.63251
288.95        28.69893
289.41        28.67513
289.86        28.47626
290.32        28.15968
290.77         27.7559
291.22         27.3965
291.68        27.26456
292.13        27.39853
292.59        27.77663
293.04         28.3517
293.50        29.05448
293.95         29.8422
294.40        30.74089
294.86        31.72824
295.31        32.75719
295.77        33.82823
296.22        34.92646
296.68        36.09634
297.13        37.40465
297.58        38.86329
298.04        40.43832
298.49        42.07484
298.95        43.70358
299.40        45.28522
299.85        46.84959
300.31        48.39225
300.76        49.88673
301.21        51.35503
301.67        52.82439
302.12         54.3339
302.58          56.028
303.03        57.87402
303.48        59.84438
303.94        61.86493
304.39        63.75987
304.84        65.51921
305.30        67.20293
305.75        68.82156
306.20        70.48214
306.66        72.21957
307.11        73.95992
307.57        75.68902
308.02        77.28502
308.47        78.75159
308.93        80.13197
309.38        81.45666
309.83        82.88174
310.29        84.43562
310.74        86.05981
311.19        87.63473
311.65        88.93855
312.10        89.89604
312.55        90.56806
313.00        91.10989
313.46        91.77268
313.91         92.6001
314.36         93.5511
314.82        94.49958
315.27        95.25538
315.72        95.74989
316.18        96.07156
316.63        96.30679
317.08        96.63654
317.53        97.10974
317.99        97.65894
318.44        98.21924
318.89        98.65651
319.35         98.9314
319.80        99.09731
320.25        99.21235
320.70        99.36912
321.16        99.59664
321.61        99.90459
322.06        100.2528
322.51        100.5842
322.97        100.8678
323.42         101.124
323.87        101.4166
324.32         101.873
324.78        102.4703
325.23        103.2285
325.68        103.9259
326.13        104.2159
326.59        104.0269
327.04         103.497
327.49        102.9011
327.94        102.7071
328.39        103.0328
328.85        103.7125
329.30        104.6233
329.75        105.2887
330.20        105.5489
330.66        105.5113
331.11        105.3815
331.56         105.417
332.01        105.7085
332.46        106.1469
332.92        106.5941
333.37        106.9889
333.82        107.2359
334.27        107.4204
334.72        107.5802
335.17         107.752
335.63        107.9627
336.08        108.2601
336.53        108.6985
336.98        109.4159
337.43        110.4136
337.88         111.602
338.34        112.8378
338.79        113.9987
339.24        114.9442
339.69        115.7051
340.14        116.1765
340.59        116.2185
341.05        115.8979
341.50        115.2911
341.95        114.7244
342.40        114.6922
342.85        115.3003
343.30        116.4048
343.75        117.7403
344.20         118.841
344.66        119.5457
345.11        119.9709
345.56        120.1865
346.01        120.3221
346.46        120.4577
346.91        120.5604
347.36        120.6859
347.81        120.9473
348.26        121.3484
348.72        121.8407
349.17        122.3799
349.62        122.9184
350.07        123.4099
350.52        123.8797
350.97        124.1469
351.42        123.9341
351.87        123.2427
352.32        122.1857
352.77        121.1583
353.22        120.7374
353.67        121.0264
354.13        121.8612
354.58         122.855
355.03        123.3045
355.48        123.0173
355.93        122.1877
356.38        121.2144
356.83         120.707
357.28        120.7835
357.73        121.2201
358.18        121.6446
358.63        121.4719
359.08        120.5699
359.53        119.1696
359.98        117.6085
360.43        116.3611
360.88          115.55
361.33        115.0333
361.78        114.6235
362.23        114.0293
362.68        113.1851
363.13        112.2131
363.58        111.2515
364.03        110.4931
364.48        109.9686
364.93        109.5737
365.38        109.2097
365.83        108.7386
366.28        108.1175
366.73        107.4083
367.18         106.618
367.63        105.7491
368.08        104.8278
368.53        103.8554
368.98        102.9295
369.43        102.2055
369.88        101.7063
370.33        101.3911
370.78        101.1242
371.23        100.6757
371.68        99.98685
372.13        99.11986
372.58        98.20306
373.03        97.44495
373.48        96.89387
373.93        96.47549
374.38        96.08648
374.83        95.57037
375.28        94.88706
375.72        94.07719
376.17        93.26424
376.62        92.51399
377.07        91.86585
377.52        91.31678
377.97        90.83751
378.42        90.39715
378.87        89.98665
379.32        89.58621
379.77        89.27859
380.22        89.18098
380.67        89.27708
381.11        89.54938
381.56        89.69598
382.01        89.32169
382.46        88.39168
382.91        87.09726
383.36        85.82151
383.81        85.08611
384.26        84.97141
384.71        85.30138
385.15        85.82053
385.60        86.07597
386.05        85.92406
386.50        85.49203
386.95        84.89246
387.40        84.30563
387.85         83.8072
388.29        83.29568
388.74        82.86453
389.19        82.43349
389.64        81.99413
390.09        81.57234
390.54        81.20127
390.98        80.90691
391.43         80.7257
391.88        80.61286
392.33        80.52251
392.78        80.34524
393.23        80.05623
393.67        79.78654
394.12        79.59645
394.57        79.11091
395.02        78.48388
395.47         78.3983
395.91        78.76244
396.36        78.76373
396.81        78.36707
397.26        78.02145
397.71        77.77563
398.15        77.50238
398.60        77.30854
399.05        77.09624
399.50        76.87393
399.95         76.8464
400.39         76.9589
400.84        76.68314
401.29        76.09521
401.74        75.93287
402.18        76.11202
402.63        75.70493
403.08        74.87194
403.53         74.5415
403.97        74.75039
404.42        75.02282
404.87        75.20973
405.32        75.20694
405.76        74.94959
406.21        74.65083
406.66        74.35159
407.11         73.8565
407.55        73.38499
408.00         73.4494
408.45        73.98145
408.90        74.49216
409.34        74.69432
409.79        74.25506
410.24         73.4052
410.68        72.95177
411.13        72.98121
411.58        73.02013
412.03        72.96272
412.47        72.87443
412.92        72.70981
413.37        72.48971
413.81        72.29233
414.26        72.30302
414.71        72.51685
415.15        72.90069
415.60        73.32092
416.05         73.6243
416.49        73.75414
416.94        73.74366
417.39        73.64819
417.83        73.54076
418.28        73.46146
418.73        73.39098
419.17        73.34555
419.62        73.35553
420.07        73.40309
420.51        73.45227
420.96        73.50875
421.41        73.46126
421.85        73.26656
422.30        73.19419
422.74         73.1313
423.19         72.6619
423.64        71.93816
424.08        71.81867
424.53        72.27941
424.98         72.5686
425.42        72.63384
425.87         72.9432
426.31        73.39272
426.76        73.42005
427.21        73.08201
427.65        72.82406
428.10        72.68273
428.54        72.63132
428.99        72.73167
429.44        72.53252
429.88        72.28983
430.33        73.23436
430.77        74.78343
431.22        75.30492
431.66        74.66158
432.11         73.4593
432.56        72.27329
433.00        72.02656
433.45        72.89753
433.89        74.21884
434.34        75.07711
434.78        75.59583
435.23        74.80509
435.67        72.43882
436.12        72.42068
436.57        72.68433
437.01        73.97721
437.46        74.37447
437.90        73.77618
438.35        73.28912
438.79        73.12444
439.24         73.2307
439.68        73.52857
440.13        73.98331
440.57        74.49952
441.02        74.39143
441.46        73.82441
441.91          74.506
442.35        75.91986
442.80        75.38466
443.24        73.91328
443.69        73.76118
444.13        75.00799
444.58        75.43678
445.02        74.98122
445.47        74.85005
445.91        75.13222
446.36        75.38733
446.80        75.57856
447.24        75.97053
447.69        76.49543
448.13        76.26468
448.58        76.34943
449.02        76.22269
449.47        76.21869
449.91        76.09694
450.36        75.90559
450.80        75.75594
451.25        75.68745
451.69        75.65139
452.13        75.66559
452.58        75.74265
453.02        75.83943
453.47        75.90984
453.91        75.92858
454.36        75.84638
454.80        75.69003
455.24        75.59653
455.69        75.51495
456.13        75.25275
456.58        74.90488
457.02        74.37346
457.46        73.90041
457.91        74.17561
458.35        74.86832
458.79         74.8754
459.24        74.18593
459.68        73.26247
460.13        72.43465
460.57        72.27083
461.01        72.36771
461.46        72.79745
461.90        73.24342
462.34         74.1441
462.79        73.74046
463.23        73.47816
463.68        74.18121
464.12        74.16283
464.56         73.7432
465.01        72.80024
465.45        71.67149
465.89        71.44193
466.34        71.94112
466.78        72.17175
467.22        72.03997
467.67        71.54074
468.11        71.32147
468.55        71.40889
468.99        71.82299
469.44        71.80885
469.88        71.34281
470.32        70.90247
470.77         70.6095
471.21        70.43561
471.65         70.4026
472.10        70.52168
472.54        70.71135
472.98        70.79565
473.42        70.71561
473.87        70.69466
474.31        70.67059
474.75        70.21909
475.20         69.5758
475.64        69.63342
476.08        70.28062
476.52        70.40249
476.97           69.91
477.41        69.64666
477.85        69.80462
478.29        68.96915
478.74        70.20408
479.18        70.18459
479.62        69.65021
480.06        69.45946
480.50        69.55358
480.95        69.70002
481.39        69.86533
481.83        69.26788
482.27         69.6607
482.72        69.56962
483.16        69.59069
483.60        69.53495
484.04        69.55249
484.48        69.87396
484.93         70.3046
485.37        69.72368
485.81         69.0542
486.25        68.78044
486.69        70.87507
487.14         71.7673
487.58        69.87204
488.02         69.9621
488.46        68.38809
488.90        68.64878
489.34         70.0162
489.79        70.41304
490.23        69.57577
490.67        68.87121
491.11        68.50549
491.55        68.42039
491.99        68.55437
492.43        68.46513
492.88        68.15592
493.32        68.08508
493.76          68.257
494.20        68.38628
494.64        68.43994
495.08        68.51017
495.52        68.58894
495.96        68.61342
496.41        68.58033
496.85         68.6264
497.29        68.61746
497.73        68.55864
498.17        67.70898
498.61        67.70139
499.05        68.19719
499.49         68.4754
499.93        68.21738
500.37         68.0779
500.82        68.04463
501.26        68.03628
501.70        68.07265
502.14        68.19224
502.58         68.3662
503.02        68.50966
503.46        68.60038
503.90        68.67358
504.34        68.70125
504.78        68.62448
505.22        68.43864
505.66        68.18166
506.10        67.93877
506.54        67.74271
506.98        67.58951
507.42        67.75572
507.86        67.86201
508.30         67.5879
508.74        67.78132
509.18        67.67247
509.62        67.56766
510.06        67.48213
510.50        67.43763
510.94        67.40523
511.38        67.38169
511.82        67.39053
512.26        67.43052
512.70        67.50221
513.14        67.58617
513.58        67.64796
514.02        67.67834
514.46        67.67939
514.90        67.67647
515.34        67.71334
515.78        67.79446
516.22        67.90244
516.66        67.99308
517.10        67.99686
517.54        67.90076
517.98        67.73202
518.42        67.54009
518.86        67.39519
519.30        67.31845
519.74        67.31331
520.18         67.3512
520.62        67.32708
521.06        67.25647
521.50        67.28902
521.93        67.40631
522.37        67.44054
522.81        67.38961
523.25        67.32732
523.69        67.29633
524.13         67.3347
524.57        67.44582
525.01        67.60723
525.45        67.75517
525.89         67.7858
526.32        67.67252
526.76        67.47498
527.20        67.23959
527.64        67.04662
528.08        66.92566
528.52        66.85003
528.96        66.83332
529.40        66.89566
529.83        67.02316
530.27        67.21528
530.71         67.3952
531.15        67.44609
531.59        67.34662
532.03        67.12606
532.46        66.86047
532.90        66.72072
533.34        66.73273
533.78        66.81345
534.22        66.89474
534.66        66.95261
535.09        66.91466
535.53        66.66409
535.97        66.28835
536.41         66.0951
536.85        66.12383
537.28        66.22414
537.72        66.35792
538.16        66.51628
538.60        66.66871
539.04        66.81453
539.47        66.91662
539.91        66.96279
540.35        66.93639
540.79        66.84258
541.22        66.71426
541.66        66.62914
542.10        66.60413
542.54        66.63113
542.97        66.66568
543.41        66.68079
543.85         66.6579
544.29        66.56854
544.72        66.45442
545.16        66.50967
545.60        66.67735
546.04        66.74729
546.47        66.71282
546.91        66.65033
547.35        66.62468
547.79        66.77772
548.22        67.03495
548.66        67.14523
549.10        67.12352
549.53        66.94702
549.97        66.70389
550.41        66.46428
550.84        66.33314
551.28        66.40042
551.72        66.56817
552.15        66.72055
552.59        66.89949
553.03        66.37418
553.46        66.77854
553.90        66.72176
554.34         66.6786
554.77         66.6133
555.21        66.57181
555.65        66.62544
556.08        66.71867
556.52        66.74055
556.96        66.66108
557.39        66.57403
557.83        66.50621
558.27        66.35874
558.70        66.16652
559.14        66.13676
559.57        66.22523
560.01        66.24355
560.45        66.22483
560.88        66.33551
561.32        66.56846
561.75        66.85564
562.19        67.08458
562.63        66.84102
563.06        66.28172
563.50        66.11669
563.93        66.30817
564.37        66.51691
564.80        66.66619
565.24        66.52882
565.68        66.01583
566.11        66.66012
566.55         66.0878
566.98        65.93794
567.42        65.68227
567.85        65.95832
568.29        66.64208
568.72        66.99108
569.16        67.09925
569.60        67.15199
570.03        67.32513
570.47        67.59428
570.90        68.12218
571.34        66.99902
571.77        67.49487
572.21        68.21204
572.64        67.56508
573.08        68.00653
573.51        67.11736
573.95        67.04292
574.38        67.44194
574.82        67.72063
575.25        67.66787
575.69         67.7493
576.12        68.01318
576.56        66.94803
576.99        66.94595
577.42        67.26239
577.86        67.42786
578.29        68.52872
578.73        68.39571
579.16        68.19621
579.60        67.45681
580.03        67.46452
580.47        67.33176
580.90        68.32351
581.33         68.1805
581.77        68.55376
582.20        68.50914
582.64        68.94424
583.07        68.32922
583.51        67.78214
583.94        67.21255
584.37        67.17544
584.81        67.74155
585.24        67.96117
585.68        67.73061
586.11        67.95188
586.54        68.03057
586.98        67.39391
587.41        66.56078
587.85        67.34865
588.28        66.97303
588.71        67.21961
589.15        66.68176
589.58        67.27264
590.01        66.64008
590.45        67.01726
590.88        67.87251
591.31        67.75661
591.75        66.91293
592.18        66.36815
592.61        66.40726
593.05        66.99815
593.48        68.13874
593.91        67.83783
594.35        67.79359
594.78        66.97047
595.21        66.13842
595.65        66.52866
596.08        68.09615
596.51        67.86609
596.94        67.08334
597.38        66.62305
597.81        66.91368
598.24        67.38705
598.68        66.91566
599.11        66.68198
599.54         68.3159
599.97        67.59042
600.41        67.18253
600.84        66.48093
601.27        67.07251
601.70        67.21116
602.14        67.44452
602.57        67.14841
603.00        66.76217
603.43        65.96186
603.87        67.08194
604.30        67.38087
604.73        67.57491
605.16         66.5041
605.60        66.49793
606.03        66.15218
606.46         66.1276
606.89        66.22491
607.32        66.62346
607.76          66.362
608.19        66.64257
608.62        66.57802
609.05        66.62453
609.48        66.40565
609.92        66.84584
610.35           66.79
610.78        66.66991
611.21         66.4125
611.64         66.2493
612.07        66.43728
612.50        66.61467
612.94        66.68209
613.37        66.46404
613.80        66.43903
614.23        65.78268
614.66        65.80063
615.09        66.20356
615.52         66.4285
615.96        66.33993
616.39        66.40382
616.82        66.67769
617.25        65.81068
617.68        65.76571
618.11        65.73323
618.54        66.19018
618.97        66.31043
619.40        66.04082
619.84        66.11196
620.27        65.92123
620.70        65.91706
621.13        65.87923
621.56        65.54358
621.99        64.98006
622.42        64.92348
622.85        65.12419
623.28        65.11317
623.71         65.1581
624.14         65.4812
624.57        65.67748
625.00        65.46613
625.43        65.75146
625.86         65.6963
626.29        65.67614
626.72        65.36736
627.15        65.50018
627.58        65.54893
628.01        65.61785
628.44        65.42328
628.87        65.06923
629.30        64.90624
629.73        64.90865
630.16        65.43841
630.59         65.1432
631.02        65.38571
631.45        65.74821
631.88        65.83919
632.31        65.56099
632.74        65.99409
633.17        65.46198
633.60        65.33147
634.03        65.14124
634.46        65.00697
634.89        64.92516
635.32        64.86469
635.75        64.84694
636.18        64.82809
636.61        64.81732
637.04        64.84493
637.47         64.9007
637.89        64.95089
638.32        64.96403
638.75        64.95744
639.18        64.92712
639.61        64.89756
640.04        64.87358
640.47        64.78549
640.90        64.67879
641.33        64.74376
641.76        64.93354
642.18         65.0067
642.61         64.9199
643.04        64.80538
643.47        64.72075
643.90        64.70626
644.33        64.77558
644.76        64.91443
645.18        65.05175
645.61        65.05381
646.04          64.906
646.47        64.65833
646.90        64.40058
647.33        64.26667
647.75        64.26332
648.18        64.40457
648.61        64.66304
649.04        64.74366
649.47        64.56304
649.89        65.19926
650.32        64.88036
650.75        64.87663
651.18         64.5756
651.61        64.55331
652.03        64.76805
652.46        65.07053
652.89        65.31818
653.32        65.37595
653.74        64.79556
654.17        64.78354
654.60        65.01646
655.03        65.19567
655.46        64.67235
655.88        64.53707
656.31        67.60108
656.74        70.93761
657.16        70.29293
657.59        70.01599
658.02        66.58993
658.45        65.97401
658.87         65.3801
659.30        65.30006
659.73        64.84216
660.15        65.98773
660.58        65.00693
661.01        64.79504
661.44        64.43011
661.86        64.14722
662.29        63.93084
662.72        64.56329
663.14        64.68814
663.57        64.65341
664.00        64.22267
664.42        64.20036
664.85        64.61185
665.27        64.96972
665.70        65.13112
666.13        65.17523
666.55        65.08585
666.98        64.77325
667.41        64.31973
667.83        64.28921
668.26        64.05293
668.69        64.10757
669.11        64.24049
669.54        64.39482
669.96         64.5391
670.39        64.77271
670.82        65.03757
671.24        64.99287
671.67        64.72372
672.09         64.7231
672.52        64.97381
672.94        65.01914
673.37        64.85043
673.80        64.69783
674.22        64.62234
674.65        64.59367
675.07        64.63882
675.50        64.73602
675.92        64.84286
676.35        64.88567
676.77        64.84339
677.20          64.741
677.62        64.61939
678.05        64.51296
678.47        64.43266
678.90        64.50858
679.32        64.47194
679.75        64.49174
680.17        64.48037
680.60        64.45498
681.02        64.43768
681.45         64.4497
681.87        64.50813
682.30        64.62242
682.72        64.76314
683.15        64.77355
683.57        64.68642
684.00        64.66475
684.42        64.74677
684.85        64.86406
685.27        65.00793
685.70        65.24056
686.12        65.47617
686.54        65.55977
686.97        65.46265
687.39        65.24143
687.82        64.96511
688.24         64.7663
688.66        64.68516
689.09        64.68797
689.51        64.75368
689.94        64.81155
690.36         64.8339
690.78        64.85075
691.21        64.90204
691.63        64.93749
692.06        64.92839
692.48        65.32357
692.90        65.19711
693.33        65.19302
693.75        65.04292
694.17        64.73934
694.60        64.42686
695.02        64.36973
695.44        64.59026
695.87        65.03568
696.29        65.50751
696.71        65.43274
697.14        64.90003
697.56        64.60973
697.98        64.65125
698.41        64.75436
698.83        64.67059
699.25        64.93835
699.68        65.33554
700.10        65.50432
700.52        65.36287
700.94        65.03787
701.37        64.68429
701.79        64.54873
702.21        64.68333
702.64        64.98515
703.06        65.33559
703.48        65.52792
703.90         65.5029
704.33        65.33768
704.75        65.09619
705.17         64.8682
705.59        64.70148
706.01        64.56677
706.44         64.5021
706.86        64.58646
707.28         64.8067
707.70        65.14772
708.12        65.52112
708.55        65.75158
708.97         65.8128
709.39        65.77762
709.81        65.69244
710.23        65.61796
710.66        65.58206
711.08        65.59488
711.50        65.60503
711.92        65.54003
712.34        65.39372
712.76        65.20857
713.19         65.0252
713.61        64.94172
714.03         64.9704
714.45        65.08761
714.87        65.26925
715.29        65.48214
715.71        65.70057
716.13        65.91044
716.56        66.07851
716.98        66.24203
717.40        66.35875
717.82        66.42403
718.24        66.39673
718.66        66.21658
719.08        65.90298
719.50        65.50971
719.92        65.14487
720.34        64.96602
720.76        65.00652
721.19        65.19639
721.61        65.50191
722.03         65.8102
722.45        66.06258
722.87        66.27647
723.29        66.39494
723.71        66.33332
724.13        66.09525
724.55         65.7107
724.97        65.30181
725.39        65.08015
725.81        65.10043
726.23        65.28881
726.65        65.54805
727.07        65.85858
727.49        65.93248
727.91        66.00001
728.33        66.03426
728.75         66.1164
729.17        66.25993
729.59        66.42311
730.01        66.56429
730.43        66.62289
730.85        66.58338
731.27        66.47137
731.69        66.31824
732.10        66.16629
732.52         66.0325
732.94        65.92595
733.36        65.86907
733.78        65.75579
734.20        65.57265
734.62        65.62295
735.04        65.98052
735.46        65.44933
735.88        66.00794
736.30         66.2414
736.72        66.66286
737.13        66.97411
737.55        67.04783
737.97         67.0443
738.39         66.9399
738.81        66.46746
739.23        65.83158
739.65        65.84581
740.06        66.39942
740.48          66.674
740.90        66.59842
741.32        66.66042
741.74        66.86823
742.16        66.97719
742.57        66.97614
742.99        66.91515
743.41        66.80653
743.83        66.65588
744.25        66.47921
744.67        66.26765
745.08        66.09761
745.50        66.06711
745.92        66.19938
746.34         66.4628
746.75        66.74654
747.17        66.85641
747.59        66.75872
748.01        66.50848
748.42        66.22496
748.84        66.12032
749.26          66.244
749.68         66.4722
750.09        66.71017
750.51         66.9339
750.93        67.03721
751.35        66.80842
751.76        66.34978
752.18        66.06124
752.60         65.9911
753.01        65.96837
753.43        65.93031
753.85        65.87699
754.27        65.80451
754.68        65.74057
755.10        65.73335
755.52        65.84953
755.93        66.08044
756.35        66.36383
756.77         66.6828
757.18        66.94983
757.60        67.13892
758.02        67.41264
758.43        67.64412
758.85        67.23691
759.26        66.90387
759.68        66.22717
760.10        66.00581
760.51        66.30526
760.93         66.7662
761.34        66.81216
761.76        66.97698
762.18        67.01247
762.59        67.17491
763.01        67.30186
763.42        67.42852
763.84        67.43749
764.26        67.34153
764.67        67.21676
765.09        67.11152
765.50        66.92001
765.92        66.71277
766.33        66.56405
766.75         66.4239
767.16        66.37484
767.58        66.39101
768.00        66.29318
768.41         66.1795
768.83        66.60742
769.24        67.34135
769.66        67.36191
770.07        66.75757
770.49         66.3746
770.90        66.39053
771.32        66.80138
771.73        67.42638
772.15        67.66319
772.56        67.46147
772.97        67.11065
773.39        66.77473
773.80        66.72943
774.22        66.90076
774.63        67.06146
775.05        67.09208
775.46        67.16135
775.88        67.21621
776.29          67.151
776.70        67.02216
777.12         67.0194
777.53        67.17821
777.95        67.39751
778.36        67.61488
778.77        67.69352
779.19        67.62069
779.60        67.45524
780.02        67.23072
780.43        67.08985
780.84        67.09296
781.26        66.84231
781.67        66.72868
782.09        67.14227
782.50        67.95589
782.91        68.08041
783.33        67.55399
783.74        67.39981
784.15        67.64989
784.57        67.69897
784.98        67.57491
785.39        67.59988
785.81        67.78625
786.22        68.04897
786.63        68.31768
787.04        68.47982
787.46         68.5212
787.87        68.45627
788.28        68.35723
788.70        68.31495
789.11        68.33116
789.52        68.40662
789.93        68.49002
790.35        68.48887
790.76         68.3908
791.17        68.21435
791.58        68.03649
792.00        67.89976
792.41        67.83535
792.82         68.0024
793.23        68.28521
793.65         68.0625
794.06        67.51172
794.47        67.64989
794.88        68.35831
795.29        68.62212
795.71        68.36231
796.12        68.27312
796.53        68.38956
796.94        68.23958
797.35        67.94031
797.76        68.15491
798.18        68.75924
798.59        69.03347
799.00        68.88862
799.41        68.71149
799.82        68.59202
800.23         68.5141
800.64        68.50625
801.06        68.53358
801.47        68.58852
801.88        68.56918
802.29        68.45044
802.70        68.26586
803.11        68.04729
803.52        67.84361
803.93        67.69581
804.34        67.60511
804.75        67.59073
805.17        67.72671
805.58        68.05102
805.99        68.32873
806.40        68.55284
806.81        69.14481
807.22        69.86457
807.63        69.72343
808.04        68.85762
808.45        68.36972
808.86        68.36876
809.27        68.27336
809.68        68.05025
810.09        67.93036
810.50        67.91998
810.91        67.96333
811.32        68.08736
811.73        68.32567
812.14        68.66099
812.55        69.07134
812.96        69.43804
813.37        69.54306
813.78        69.33945
814.19        68.91609
814.60        68.41388
815.01        68.02393
815.42        67.79461
815.83        67.67094
816.24        67.65269
816.65        67.72874
817.05        67.88512
817.46          68.111
817.87        68.33457
818.28        68.39214
818.69        68.25679
819.10        67.94334
819.51        67.62134
819.92        67.60677
820.33        67.96696
820.74        68.60163
821.14        69.26394
821.55        69.55191
821.96        69.37662
822.37        68.86358
822.78         68.2383
823.19        67.88567
823.60        67.92805
824.00        68.27476
824.41        68.73207
824.82        69.07217
825.23        69.19268
825.64        69.16516
826.04        69.05592
826.45        68.92628
826.86        68.82626
827.27         68.7407
827.68        68.64389
828.08        68.53142
828.49        68.35986
828.90        68.16101
829.31        68.03775
829.72        68.14811
830.12        68.53123
830.53        69.07658
830.94        69.58948
831.35        69.69267
831.75        69.31681
832.16        68.56489
832.57        67.70996
832.97        67.16621
833.38        67.05541
833.79        67.24438
834.20        67.61884
834.60        67.98899
835.01        68.28356
835.42        68.60336
835.82        68.91166
836.23        69.05875
836.64        69.05136
837.04        68.86598
837.45        68.70171
837.86        68.96703
838.26        69.74203
838.67          70.865
839.08        71.93031
839.48        72.16852
839.89         71.4072
840.29        69.95506
840.70        68.43099
841.11        67.53535
841.51          67.452
841.92        67.94648
842.33        68.80524
842.73        69.63949
843.14        70.16402
843.54        70.53132
843.95         70.7445
844.35        70.86933
844.76        70.91725
845.17          70.841
845.57        70.65829
845.98        70.39863
846.38        70.11589
846.79        69.82856
847.19        69.60107
847.60        69.49442
848.00        69.52753
848.41        69.65229
848.81        69.83958
849.22        69.95105
849.62        69.98656
850.03        69.96712
850.43        69.90677
850.84        69.76768
851.24        69.60327
851.65        69.35116
852.05        69.20186
852.46        69.37066
852.86        69.87833
853.27        70.63501
853.67        71.31115
854.07        71.57005
854.48        71.33165
854.88        70.71812
855.29        69.91924
855.69        69.42477
856.10        69.32546
856.50        69.57421
856.90        69.93871
857.31        70.04503
857.71        69.83635
858.12        69.35616
858.52        68.83353
858.92        68.52927
859.33        68.50519
859.73        68.72397
860.13        68.96104
860.54        68.87366
860.94        68.43367
861.34        67.74734
861.75        67.07524
862.15        66.87559
862.55        67.23384
862.96        67.96802
863.36        68.85721
863.76        69.44406
864.17        69.55641
864.57         69.3391
864.97        68.88908
865.38        68.37103
865.78        67.89762
866.18        67.43754
866.58        67.03167
866.99        66.76415
867.39        66.69076
867.79        66.79692
868.19        67.09304
868.60        67.54852
869.00        68.14979
869.40        68.85894
869.80        69.51659
870.21        69.82591
870.61        69.76079
871.01        69.36817
871.41        68.79103
871.81        68.23906
872.22        67.77465
872.62        67.34193
873.02        67.02078
873.42        66.92688
873.82        67.06968
874.22         67.4376
874.63         67.8239
875.03        67.90667
875.43        67.60543
875.83        66.99796
876.23        66.34403
876.63        66.05722
877.03        66.23391
877.44        66.74264
877.84         67.3301
878.24        67.57546
878.64        67.32628
879.04         66.5809
879.44        65.73595
879.84        65.49014
880.24        65.93575
880.64        66.82909
881.04        67.68284
881.44         67.7216
881.84        66.79791
882.24        65.20749
882.65        63.56021
883.05        62.79323
883.45        63.13198
883.85        64.27766
884.25        65.76253
884.65        66.78329
885.05        67.07264
885.45        66.88238
885.85        66.44653
886.25        66.12243
886.65         66.0357
887.05        66.04176
887.45        66.12173
887.85        66.27713
888.25        66.47291
888.65        66.72865
889.04         66.9565
889.44        67.02203
889.84        66.88876
890.24        66.59603
890.64        66.21613
891.04        65.88817
891.44        65.66865
891.84        65.53031
892.24        65.47067
892.64        65.47404
893.04        65.53252
893.44        65.66974
893.83        65.86874
894.23         66.0371
894.63        66.17103
895.03        66.26049
895.43        66.36066
895.83        66.57853
896.23        66.91052
896.63        67.29237
897.02        67.59058
897.42        67.62354
897.82        67.35738
898.22        66.89137
898.62         66.3301
899.01        65.81542
899.41        65.42742
899.81        65.12457
900.21        64.95522
900.61        64.99274
901.00        65.22532
901.40        65.61971
901.80        66.04276
902.20        66.26883
902.59        66.25701
902.99        66.06741
903.39        65.80128
903.79        65.63319
904.18        65.61046
904.58        65.67153
904.98        65.83623
905.38         66.1464
905.77        66.58466
906.17        67.16244
906.57        67.68755
906.96        67.83731
907.36        67.53847
907.76        66.88903
908.15        66.22028
908.55        66.04589
908.95        66.47754
909.34        67.36382
909.74        68.30524
910.14        68.72425
910.53        68.44106
910.93        67.67635
911.33        66.68458
911.72         65.8418
912.12        65.34723
912.52        65.09796
912.91        65.03585
913.31         65.0955
913.70        65.23814
914.10        65.45573
914.49        65.81478
914.89        66.32184
915.29        66.95899
915.68        67.68712
916.08        68.24191
916.47         68.2844
916.87        67.78216
917.26        66.83765
917.66        65.86072
918.05        65.32105
918.45         65.3335
918.84        65.82503
919.24        66.47405
919.64         66.8367
920.03        66.78786
920.42        66.41885
920.82        66.05059
921.21        66.12598
921.61         66.7186
922.00        67.71943
922.40        68.72713
922.79        69.19193
923.19        68.93189
923.58        68.15569
923.98        67.26491
924.37         66.7823
924.77        66.84151
925.16         67.2388
925.55        67.73702
925.95        67.90739
926.34        67.64436
926.74        67.10213
927.13        66.40783
927.52        65.68232
927.92         65.0577
928.31        64.48558
928.70        64.10061
929.10        64.08451
929.49        64.43344
929.89        65.04942
930.28        65.83748
930.67        66.50291
931.07        66.89887
931.46        67.14296
931.85        67.15016
932.24        66.86139
932.64        66.36279
933.03        65.66634
933.42        65.07491
933.82        65.01402
934.21         65.5514
934.60        66.60399
934.99        67.84226
935.39        68.64745
935.78        68.86273
936.17        68.55401
936.56        67.97771
936.96        67.55227
937.35        67.39027
937.74        67.36245
938.13        67.27491
938.53         66.8585
938.92        66.09167
939.31        65.15238
939.70        64.25049
940.09        63.63955
940.49        63.36157
940.88        63.36644
941.27        63.62474
941.66        64.06359
942.05        64.62045
942.44        65.30612
942.84        66.00916
943.23        66.55341
943.62        66.89474
944.01        67.00563
944.40        67.01805
944.79        67.19269
945.18        67.56068
945.57        68.03371
945.97        68.33251
946.36        68.09058
946.75        67.22986
947.14        65.99754
947.53        64.71664
947.92        63.81544
948.31        63.41367
948.70        63.38001
949.09        63.68014
949.48        64.24119
949.87        64.97157
950.26        65.86925
950.65        66.70984
951.04        67.13158
951.43        67.03876
951.82        66.47941
952.21        65.71284
952.60        65.19312
952.99        65.07083
953.38        65.28547
953.77        65.61572
954.16        65.69881
954.55        65.43826
954.94        64.88684
955.33        64.36832
955.72        64.43566
956.11        65.18731
956.50        66.45747
956.89        67.59646
957.28        67.53035
957.66        66.07104
958.05        63.67932
958.44        61.22326
958.83        59.92655
959.22        60.03582
959.61        61.18949
960.00        62.81353
960.39        63.82109
960.78        63.82621
961.16        63.17076
961.55        62.27406
961.94        61.66808
962.33        61.52251
962.72        61.65254
963.11        61.96255
963.49        62.33599
963.88        62.62331
964.27        62.89293
964.66        63.19901
965.04         63.6366
965.43        64.16567
965.82        64.76871
966.21        65.22722
966.60        65.16445
966.98        64.49154
967.37        63.41586
967.76        62.32394
968.15        61.68711
968.53         61.6028
968.92        61.97161
969.31        62.52735
969.69        62.74757
970.08        62.40892
970.47        61.70163
970.86        61.04466
971.24        61.02566
971.63         61.7623
972.02        63.11022
972.40          64.641
972.79          65.259
973.17         64.7205
973.56        63.38246
973.95        61.95109
974.33        61.35752
974.72        61.78681
975.11        62.94403
975.49        64.39627
975.88        65.22649
976.26        65.15884
976.65        64.44156
977.04        63.43447
977.42        62.65785
977.81        62.24768
978.19        62.01357
978.58         61.9946
978.96         62.2207
979.35        62.62648
979.74        63.27069
980.12        63.96883
980.51        64.13204
980.89        63.78014
981.28        63.05799
981.66        62.36934
982.05        62.29175
982.43        62.95525
982.82        64.14491
983.20        65.74215
983.59        67.37746
983.97        68.88906
984.35         70.2992
984.74        71.23281
985.12        71.34793
985.51        70.57016
985.89        69.06617
986.28        67.45302
986.66        66.58336
987.04        66.73174
987.43        67.67958
987.81        69.06639
988.20        70.00416
988.58        70.17052
988.96        69.69333
989.35        68.89877
989.73        68.25764
990.12        67.88672
990.50        67.71403
990.88        67.39384
991.27        66.40611
991.65        64.76388
992.03         62.7513
992.42        61.12238
992.80        60.84788
993.18        62.08372
993.56        64.56638
993.95        67.40186
994.33        69.01137
994.71        68.72729
995.10        67.11641
995.48          65.041
995.86        63.87848
996.24        63.98708
996.63        64.82905
997.01        66.22279
997.39        67.42783
997.77        68.03331
998.15        68.35955
998.54        68.25305
998.92        67.31866
999.30        65.72625
999.68        63.64246
1000.06        61.81131
1000.45        61.28297
1000.83        62.34843
1001.21        64.81252
1001.59        68.07316
1001.97        70.51128
1002.35        71.37444
1002.73        71.06499
1003.12        70.24977
1003.50        69.72587
1003.88        69.82584
1004.26         70.1343
1004.64        70.62365
1005.02         71.2493
1005.40        71.88599
1005.78        72.74997
1006.16        73.22803
1006.54         72.2883
1006.92        69.96678
1007.30        66.68494
1007.69        63.75903
1008.07        62.90345
1008.45        64.60276
1008.83         68.4599
1009.21        73.32318
1009.59        76.29128
1009.97        75.95277
1010.35        73.13904
1010.73        69.06452
1011.11        65.50461
1011.49         63.1154
1011.86        61.47364
1012.24        60.57084
1012.62        60.36424
1013.00        60.77615
1013.38        61.95874
1013.76        63.78749
1014.14        65.64573
1014.52        67.07252
1014.90        67.92561
1015.28        68.28957
1015.66        68.53047
1016.04        68.76892
1016.41        68.91705
1016.79        68.79367
1017.17        68.20423
1017.55        67.18105
1017.93        65.90753
1018.31        64.76889
1018.69        64.20421
1019.06          64.328
1019.44        65.13016
1019.82        66.22213
1020.20        66.68852
1020.58        66.14378
1020.95        64.68945
1021.33        63.29133
1021.71        62.97959
1022.09        63.93612
1022.46        66.25765
1022.84        68.75706
1023.22         68.7303
1023.60        65.43938
1023.97        59.77166
1024.35        54.88997
1024.73        54.39939
