SpectraSmart Spectrum 2.9.0.0
--------- Device Information -----------
Spectrum Name :  反射率_0
Saving Time :  2024/04/26 23:50:12
Spectro-Module Model Name : SE2030-DUVN
Spectro-Module Serial Number : OS361AC55029948
Wavelength Start : 200
Wavelength End : 1025
Wavelength Unit : Wavelength(nm)
Spectrum Unit : Reflectance(%)
-----------Spectrum Setting ------------
Integration Time : 20ms
Average : 10
Boxcar : 0
Background removal :  enabled
linearity correction :  enabled
SC :  disabled
Intensity correction :  disabled
DWT denoise :  enabled
savitzky-golay :  disabled
FFT :  disabled
Running average :  disabled
Kalman :  disabled
High pass :  disabled
---------------BEGIN--------------------
Wavelength(nm)             Reflectance(%)
200.29               0
200.75        27.15636
201.21        23.44634
201.67        20.65431
202.13        20.00588
202.58        21.44065
203.04        25.22101
203.50        30.90164
203.96         35.7889
204.42        37.73532
204.88        36.61635
205.34        33.79621
205.80        32.79729
206.26        34.27319
206.72        36.35437
207.18        37.76102
207.64        37.35413
208.10        34.90042
208.55        30.87275
209.01        24.14724
209.47         16.5736
209.93        12.36922
210.39        11.52742
210.85         12.6966
211.31        15.18398
211.77        19.75185
212.23        29.88623
212.69        55.64619
213.14          102.56
213.60         106.629
214.06        77.24004
214.52         55.3492
214.98        44.42576
215.44        38.42647
215.90        33.65145
216.36        29.52469
216.81         25.5968
217.27        22.05315
217.73        19.38799
218.19        18.06013
218.65        19.21284
219.11        22.40543
219.57        25.29602
220.02        28.48789
220.48        34.23273
220.94        43.66093
221.40        58.75024
221.86        78.06693
222.32        86.24844
222.77        73.52843
223.23        51.95734
223.69        34.05171
224.15        26.18262
224.61        25.78848
225.06        28.81401
225.52        32.86186
225.98        35.67181
226.44         36.9952
226.90        37.88841
227.36        38.26903
227.81        37.81207
228.27        36.76815
228.73         35.0448
229.19        33.65377
229.65        33.89001
230.10        35.68857
230.56        38.63637
231.02        41.37994
231.48        41.71597
231.93        39.40989
232.39        35.72055
232.85        32.09237
233.31        30.36667
233.77        30.73969
234.22        32.56388
234.68        34.99025
235.14        36.82602
235.60        37.67697
236.05        37.95028
236.51        37.89338
236.97        37.94631
237.43        38.35961
237.88        38.96881
238.34        39.84448
238.80        41.45176
239.26        44.08724
239.71        48.31507
240.17        54.03278
240.63         60.4029
241.08        66.60052
241.54        71.77888
242.00        76.69604
242.46        84.11004
242.91        96.73012
243.37        116.0232
243.83        142.4619
244.28        164.5873
244.74         164.716
245.20        142.9896
245.66         115.799
246.11        97.17062
246.57        87.75806
247.03        83.46024
247.48        81.06844
247.94        76.46764
248.40        70.41663
248.85        65.20715
249.31        61.68823
249.77        59.33986
250.22        57.50123
250.68        55.65069
251.14        53.89212
251.59        53.26561
252.05        54.70666
252.51        57.98451
252.96        61.29894
253.42        63.45367
253.88        64.42499
254.33        64.14994
254.79        64.73795
255.25         67.8007
255.70        72.95856
256.16        79.54651
256.62        84.42656
257.07        83.10787
257.53        77.47379
257.99        70.67089
258.44         65.1282
258.90        63.05108
259.35        63.25174
259.81        64.83803
260.27         66.4006
260.72        66.31707
261.18        64.81087
261.63        62.40602
262.09        60.21059
262.55        58.83286
263.00        58.15416
263.46        57.96787
263.91        57.65622
264.37        56.79979
264.83        55.34615
265.28        53.51784
265.74        51.84868
266.19        50.66029
266.65        50.05019
267.11        49.76805
267.56        49.54187
268.02        48.96707
268.47        47.95139
268.93         46.6768
269.38         45.3079
269.84        44.14248
270.30        43.24187
270.75        42.50027
271.21        41.87128
271.66        41.22881
272.12        40.53293
272.57        39.79405
273.03        39.01882
273.48        38.20237
273.94        37.40322
274.39        36.59243
274.85        35.82857
275.31        35.05444
275.76        34.26017
276.22        33.51597
276.67        32.84181
277.13        32.35421
277.58        32.00515
278.04         31.7575
278.49        31.50416
278.95        31.20648
279.40        30.79128
279.86        30.35056
280.31        29.80665
280.77        29.15385
281.22         28.3896
281.68        27.60284
282.13        26.89708
282.59         26.4928
283.04        26.38047
283.50        26.51116
283.95        26.74057
284.41        26.84103
284.86        26.75409
285.32        26.57758
285.77        26.39425
286.22        26.38721
286.68        26.58429
287.13        26.86883
287.59        27.19237
288.04        27.44222
288.50        27.59831
288.95        27.67268
289.41        27.66445
289.86         27.4999
290.32        27.23898
290.77        26.91641
291.22        26.66425
291.68        26.66178
292.13        26.94538
292.59        27.49291
293.04        28.24546
293.50        29.11596
293.95        30.05497
294.40         31.0861
294.86        32.20184
295.31        33.38148
295.77        34.62881
296.22        35.92251
296.68        37.28318
297.13        38.73671
297.58        40.29876
298.04        41.96526
298.49        43.71638
298.95        45.53748
299.40         47.3966
299.85        49.28597
300.31        51.19548
300.76        53.09143
301.21        54.97131
301.67        56.85548
302.12        58.70287
302.58        60.54308
303.03        62.34193
303.48        64.13225
303.94        65.96191
304.39        67.83294
304.84        69.77427
305.30        71.78366
305.75        73.79984
306.20        75.81908
306.66         77.8372
307.11        79.81293
307.57        81.72165
308.02        83.41817
308.47        84.91516
308.93         86.2529
309.38        87.52594
309.83        89.00204
310.29        90.72798
310.74        92.62119
311.19        94.46671
311.65        95.88088
312.10        96.75573
312.55        97.20328
313.00        97.49842
313.46        98.07372
313.91        99.00526
314.36        100.1934
314.82         101.397
315.27        102.2398
315.72        102.6077
316.18        102.6594
316.63        102.5821
317.08        102.7108
317.53        103.1381
317.99        103.7497
318.44        104.4253
318.89        104.9413
319.35        105.2268
319.80        105.3618
320.25        105.4358
320.70        105.5874
321.16        105.8562
321.61        106.2349
322.06        106.6414
322.51        106.9591
322.97        107.1413
323.42        107.2211
323.87        107.3261
324.32        107.6836
324.78        108.2928
325.23        109.1629
325.68        109.9746
326.13        110.2135
326.59        109.7775
327.04        108.8591
327.49        107.8894
327.94        107.5764
328.39        108.0884
328.85        109.1935
329.30        110.6019
329.75        111.5192
330.20        111.6864
330.66        111.2954
331.11         110.735
331.56        110.5579
332.01        110.9351
332.46        111.6673
332.92        112.4699
333.37        113.0382
333.82         113.198
334.27        113.1221
334.72        112.9584
335.17        112.9178
335.63        113.0845
336.08        113.4491
336.53        114.0166
336.98        114.8492
337.43        115.9192
337.88        117.1716
338.34        118.4589
338.79        119.6531
339.24          120.61
339.69        121.3403
340.14        121.7753
340.59         121.843
341.05        121.6179
341.50        121.1632
341.95         120.722
342.40        120.6563
342.85        121.0581
343.30        121.8306
343.75        122.8318
344.20        123.8007
344.66        124.6189
345.11        125.3279
345.56        125.8746
346.01        126.1923
346.46        126.3084
346.91        126.2597
347.36        126.1583
347.81         126.206
348.26        126.4438
348.72        126.7912
349.17        127.2303
349.62        127.7597
350.07        128.3321
350.52        128.9675
350.97         129.407
351.42        129.2419
351.87        128.4427
352.32        127.1494
352.77         125.852
353.22         125.272
353.67         125.543
354.13        126.4681
354.58        127.5577
355.03        127.9357
355.48         127.383
355.93        126.1613
356.38        124.8184
356.83        124.1829
357.28        124.4067
357.73        125.1833
358.18        125.9888
358.63        125.9919
359.08        124.9913
359.53        123.2969
359.98        121.3517
360.43        119.7889
360.88        118.7787
361.33        118.1307
361.78        117.6218
362.23        116.9084
362.68        115.9111
363.13        114.7842
363.58        113.6819
364.03        112.8098
364.48        112.2031
364.93        111.7458
365.38        111.3347
365.83        110.8308
366.28        110.1854
366.73        109.4553
367.18        108.6415
367.63        107.7371
368.08        106.7663
368.53        105.7372
368.98        104.7428
369.43        103.9315
369.88        103.3294
370.33        102.8971
370.78         102.528
371.23        102.0406
371.68        101.3818
372.13        100.5957
372.58         99.7595
373.03        98.99991
373.48        98.34476
373.93        97.74217
374.38        97.13319
374.83        96.43604
375.28        95.63441
375.72        94.75085
376.17        93.88354
376.62         93.0547
377.07        92.29743
377.52        91.63251
377.97         91.0526
378.42        90.56042
378.87         90.1527
379.32        89.78468
379.77        89.53099
380.22        89.50226
380.67        89.67001
381.11        90.01595
381.56        90.19991
382.01         89.7625
382.46        88.67013
382.91        87.15274
383.36        85.65788
383.81        84.79482
384.26        84.66129
384.71        85.05125
385.15        85.69065
385.60        86.08955
386.05        86.07913
386.50        85.79366
386.95        85.30437
387.40        84.73154
387.85        84.14902
388.29        83.47096
388.74        82.85971
389.19        82.33759
389.64        81.90381
390.09        81.54283
390.54        81.22587
390.98        80.87805
391.43         80.5261
391.88        80.18273
392.33          79.839
392.78        79.46545
393.23        79.06676
393.67        78.65401
394.12        78.33326
394.57        78.03056
395.02        77.78447
395.47        77.73397
395.91        77.83131
396.36        77.80799
396.81        77.65386
397.26        77.49487
397.71         77.3232
398.15        77.09932
398.60        76.92278
399.05        76.59344
399.50        76.19134
399.95        76.19282
400.39        76.46393
400.84        76.07711
401.29        75.13691
401.74        74.69256
402.18         74.7483
402.63        74.42724
403.08        73.81572
403.53        73.56924
403.97        73.69983
404.42        73.90587
404.87        74.05753
405.32        74.04224
405.76        73.81657
406.21        73.47346
406.66        73.09103
407.11        72.83427
407.55        72.79991
408.00        72.77737
408.45        72.76369
408.90        73.16702
409.34        73.68657
409.79        73.21336
410.24        72.02841
410.68        71.48366
411.13        71.67463
411.58         71.8811
412.03        71.92221
412.47        71.82774
412.92        71.52695
413.37        71.06371
413.81        70.60167
414.26        70.43834
414.71        70.59478
415.15        71.01635
415.60        71.51048
416.05        71.81404
416.49        71.84198
416.94        71.66054
417.39        71.40334
417.83        71.26357
418.28        71.30038
418.73        71.45045
419.17        71.63501
419.62        71.73514
420.07        71.71136
420.51        71.58703
420.96        71.45502
421.41        71.38422
421.85         71.3652
422.30        71.46304
422.74        71.53496
423.19        71.41926
423.64        71.10167
424.08        70.78956
424.53        70.56573
424.98        70.46758
425.42        70.53391
425.87        70.84147
426.31         71.2385
426.76        71.21906
427.21        70.83582
427.65        70.62737
428.10        70.64002
428.54        70.66652
428.99        70.75015
429.44        70.73953
429.88        70.76626
430.33        71.39609
430.77        72.29029
431.22        72.79087
431.66        72.71152
432.11        71.89611
432.56        70.71107
433.00        70.32088
433.45        70.98264
433.89        71.77478
434.34        71.87279
434.78        73.13905
435.23        72.02081
435.67         69.6842
436.12        70.75896
436.57         70.9667
437.01        71.58326
437.46        71.91621
437.90        72.04005
438.35        70.81723
438.79        71.29358
439.24        71.15037
439.68        71.24539
440.13        71.57443
440.57        72.09091
441.02        72.31034
441.46        72.19229
441.91        72.62349
442.35        73.28455
442.80         72.9334
443.24        71.84666
443.69        71.87955
444.13        72.90384
444.58        73.31036
445.02        73.03297
445.47        72.98499
445.91        73.20884
446.36        73.38345
446.80        73.49262
447.24        73.61322
447.69        73.72558
448.13        73.77878
448.58        73.78033
449.02        73.71854
449.47         73.6209
449.91        73.48803
450.36        73.35587
450.80        73.24191
451.25        73.18745
451.69        73.11443
452.13         73.0756
452.58        73.23143
453.02        73.51031
453.47        73.64474
453.91        73.58904
454.36        73.48206
454.80        73.32388
455.24        73.02126
455.69        72.60366
456.13        72.21399
456.58         71.9593
457.02        71.52203
457.46        71.12471
457.91        71.56251
458.35        72.47067
458.79        72.60178
459.24        71.92242
459.68        71.00558
460.13        70.19784
460.57        69.81147
461.01        70.00531
461.46        70.32738
461.90        70.53518
462.34        71.77583
462.79        71.40689
463.23        71.53418
463.68        71.38261
464.12        71.10921
464.56        70.69985
465.01        70.07974
465.45        69.38821
465.89        69.07719
466.34         69.1093
466.78        69.27973
467.22        69.54137
467.67        69.14582
468.11        69.22742
468.55        69.12617
468.99        69.13841
469.44          68.957
469.88        68.60633
470.32        68.25916
470.77        67.98944
471.21        67.86671
471.65        67.89165
472.10        68.03275
472.54        68.23033
472.98         68.3269
473.42        68.26584
473.87        68.32814
474.31        68.38862
474.75        67.80507
475.20        66.86356
475.64        66.74467
476.08        67.37577
476.52        67.52276
476.97        67.11295
477.41        67.07883
477.85        67.37959
478.29        66.94151
478.74        67.41739
479.18        67.37854
479.62        67.34477
480.06        67.25411
480.50        67.08076
480.95        67.07863
481.39        67.27979
481.83          66.678
482.27        66.60636
482.72        67.24234
483.16        66.73775
483.60        66.84898
484.04        66.91442
484.48        67.12468
484.93        67.23634
485.37        67.07544
485.81        66.38465
486.25        66.08415
486.69        68.61329
487.14        69.43984
487.58         66.8914
488.02        67.16511
488.46        66.36868
488.90        66.05256
489.34        66.95757
489.79        67.49599
490.23        66.77641
490.67        66.33608
491.11        65.98239
491.55        65.82463
491.99        65.82378
492.43        65.69518
492.88        65.46683
493.32         65.4548
493.76        65.64244
494.20        65.78097
494.64        65.82839
495.08        65.87557
495.52        65.92029
495.96        65.87135
496.41        65.75087
496.85        65.79622
497.29        65.84729
497.73        65.76337
498.17        64.82815
498.61        64.70528
499.05        65.11747
499.49        65.37147
499.93        65.17954
500.37        65.22295
500.82        65.41603
501.26        65.48198
501.70        65.40582
502.14        65.40072
502.58        65.33088
503.02         65.3815
503.46        65.50752
503.90        65.70869
504.34         65.8963
504.78        65.91725
505.22        65.73692
505.66        65.42279
506.10        65.09877
506.54        64.84919
506.98        64.66605
507.42        64.87508
507.86        64.90147
508.30        64.61326
508.74        64.91196
509.18        64.89696
509.62        64.87824
510.06        64.83932
510.50        64.79326
510.94        64.71375
511.38        64.61993
511.82        64.57786
512.26        64.59694
512.70         64.6655
513.14        64.75037
513.58        64.79331
514.02        64.78066
514.46        64.72906
514.90        64.67032
515.34         64.6571
515.78        64.69751
516.22        64.76575
516.66        64.83125
517.10        64.84652
517.54        64.80055
517.98        64.71812
518.42        64.60727
518.86        64.47993
519.30        64.34967
519.74        64.21322
520.18        64.11079
520.62        64.10258
521.06        64.19666
521.50        64.38258
521.93        64.59207
522.37        64.68956
522.81        64.65421
523.25        64.51527
523.69        64.36338
524.13        64.34651
524.57        64.48487
525.01          64.716
525.45        64.93995
525.89        64.99601
526.32        64.84334
526.76        64.57063
527.20        64.23846
527.64        63.94579
528.08        63.73803
528.52        63.57977
528.96        63.51035
529.40          63.607
529.83        63.84901
530.27        64.18134
530.71        64.49761
531.15        64.66281
531.59        64.63895
532.03        64.44707
532.46         64.1689
532.90         63.9974
533.34        63.96773
533.78        63.98959
534.22        64.01546
534.66        64.05006
535.09        64.02696
535.53        63.83234
535.97        63.51669
536.41        63.31886
536.85        63.26909
537.28         63.2423
537.72         63.2479
538.16        63.35167
538.60        63.54076
539.04        63.78934
539.47        64.01863
539.91        64.14996
540.35         64.1504
540.79        64.04549
541.22        63.88995
541.66          63.797
542.10        63.78848
542.54        63.83393
542.97        63.88424
543.41        63.89513
543.85        63.84726
544.29        63.76183
544.72         63.6535
545.16        63.61169
545.60        63.62045
546.04         63.5934
546.47        63.56156
546.91        63.63039
547.35        63.79703
547.79        64.02001
548.22        64.22558
548.66         64.2762
549.10        64.20346
549.53        64.08174
549.97        63.98133
550.41        63.67653
550.84         63.2272
551.28        63.59105
551.72        63.33194
552.15        63.50209
552.59        63.74306
553.03        63.21874
553.46        63.81118
553.90        63.73425
554.34        63.52352
554.77        63.63845
555.21        63.36432
555.65        63.42095
556.08        63.54642
556.52        63.79865
556.96         64.0493
557.39         64.0345
557.83        63.79893
558.27        63.61777
558.70        63.47893
559.14        63.34648
559.57        63.20579
560.01        63.12249
560.45        63.12281
560.88        63.23615
561.32        63.44998
561.75        63.68541
562.19         63.8708
562.63        63.78021
563.06        63.48765
563.50        63.37482
563.93        63.40822
564.37          63.453
564.80        63.49647
565.24        63.37326
565.68        62.98154
566.11        63.62807
566.55        63.03677
566.98         62.9352
567.42        62.79052
567.85        62.99162
568.29        63.47536
568.72        63.81742
569.16        64.06886
569.60        64.19995
570.03        64.40094
570.47        64.61532
570.90        64.96058
571.34        64.26912
571.77        64.71764
572.21         65.0827
572.64         64.7064
573.08        65.13275
573.51        64.12659
573.95        64.23038
574.38        64.94016
574.82        65.02757
575.25        64.55525
575.69        64.75235
576.12        64.83904
576.56        64.16319
576.99        64.55265
577.42        64.64298
577.86        64.56784
578.29        65.61974
578.73         65.3309
579.16        65.21729
579.60        64.62981
580.03        64.69068
580.47        64.50677
580.90         65.4081
581.33        65.35627
581.77        65.59256
582.20        65.69257
582.64        66.12527
583.07        65.58777
583.51        65.06315
583.94        64.47437
584.37        64.35703
584.81        64.83897
585.24        65.07146
585.68        64.87355
586.11        65.17619
586.54        65.16399
586.98        64.10239
587.41        63.70535
587.85        64.39369
588.28        64.71569
588.71        64.52142
589.15        64.12177
589.58        64.46685
590.01        63.79324
590.45        63.73728
590.88        64.41145
591.31        64.45335
591.75        64.12897
592.18        63.73084
592.61        63.50613
593.05        64.12987
593.48        65.32239
593.91         64.9862
594.35        64.69917
594.78        63.95846
595.21        63.44546
595.65        63.75733
596.08        64.89674
596.51        64.74848
596.94        64.20523
597.38        63.88033
597.81        64.04826
598.24         64.7052
598.68        64.20201
599.11        64.07243
599.54         65.2734
599.97        64.66173
600.41        64.56914
600.84        63.94319
601.27        64.29096
601.70        64.24075
602.14        64.17859
602.57         63.9797
603.00        63.91763
603.43        63.36288
603.87        64.41202
604.30        64.47522
604.73        64.32682
605.16        63.27866
605.60        63.60092
606.03        63.32354
606.46        63.01778
606.89        63.46866
607.32        63.58056
607.76        63.40059
608.19        63.70547
608.62        63.59045
609.05        63.49246
609.48         63.3973
609.92        64.13608
610.35        63.82951
610.78        63.21019
611.21        63.08636
611.64         63.2131
612.07        63.52766
612.50        63.53441
612.94        63.53919
613.37        63.35794
613.80        63.63176
614.23        62.74139
614.66        62.82848
615.09        63.35789
615.52        63.45972
615.96        63.01146
616.39        63.50067
616.82        63.41668
617.25        63.05135
617.68        63.07253
618.11        63.09375
618.54        63.36209
618.97        63.40742
619.40        63.25166
619.84         63.0799
620.27        63.05363
620.70        62.99365
621.13        62.90974
621.56        62.49015
621.99        61.85783
622.42        61.83257
622.85        62.40065
623.28        62.37226
623.71        62.26287
624.14        62.73098
624.57         62.7868
625.00        62.86894
625.43        62.76828
625.86        62.60242
626.29        62.50747
626.72        62.02457
627.15        62.28459
627.58        62.31427
628.01        62.34416
628.44        62.47045
628.87        62.35526
629.30        62.06196
629.73        61.97236
630.16        61.88775
630.59         61.9537
631.02        62.10812
631.45        62.31385
631.88         62.4961
632.31        62.61609
632.74        62.69594
633.17        62.70446
633.60        62.59532
634.03         62.3763
634.46        62.06106
634.89        61.73141
635.32        61.53682
635.75        61.51527
636.18        61.56308
636.61        61.64318
637.04        61.72716
637.47        61.78619
637.89        61.83231
638.32        61.84072
638.75        61.80297
639.18         61.7182
639.61         61.6986
640.04        61.56892
640.47        61.56516
640.90        61.63432
641.33         61.7683
641.76        61.90833
642.18        61.96501
642.61        61.89834
643.04        61.74002
643.47         61.5563
643.90         61.4544
644.33        61.45988
644.76         61.5444
645.18        61.64516
645.61        61.64054
646.04        61.51591
646.47        61.32098
646.90        61.13087
647.33        61.05068
647.75        61.07716
648.18        61.22966
648.61        61.49032
649.04        61.56154
649.47        61.36562
649.89        62.00354
650.32        61.78232
650.75        61.66916
651.18        61.31714
651.61        61.32539
652.03        61.71176
652.46        62.03566
652.89         62.1627
653.32        62.10071
653.74         62.0652
654.17        61.21722
654.60        61.99111
655.03        61.58022
655.46        61.08477
655.88        61.40442
656.31        64.65429
656.74        68.62836
657.16        68.12277
657.59        67.36578
658.02        63.69972
658.45        63.12011
658.87        61.69022
659.30        61.58477
659.73        61.87652
660.15        63.15451
660.58        61.83765
661.01        61.62166
661.44        61.55703
661.86        61.21891
662.29        60.65001
662.72        61.10878
663.14        61.33606
663.57        61.39846
664.00        61.04007
664.42        61.09398
664.85        61.56805
665.27        61.96316
665.70        62.14648
666.13        62.21483
666.55        62.15204
666.98        61.85944
667.41        61.41095
667.83        61.34083
668.26        61.05304
668.69        61.03296
669.11        61.08262
669.54        61.16078
669.96        61.24764
670.39        61.41226
670.82        61.61964
671.24        61.64376
671.67        61.53064
672.09        61.58272
672.52        61.79422
672.94         61.8679
673.37        61.80131
673.80        61.75477
674.22        61.75113
674.65        61.71282
675.07        61.65953
675.50        61.60859
675.92        61.55424
676.35        61.47157
676.77         61.3651
677.20        61.24024
677.62        61.14077
678.05        61.13565
678.47        61.23007
678.90        61.40259
679.32        61.58506
679.75        61.67882
680.17        61.65411
680.60        61.55138
681.02        61.42682
681.45        61.33844
681.87        61.33028
682.30        61.43959
682.72        61.63016
683.15        61.69839
683.57        61.66268
684.00        61.70747
684.42        61.84351
684.85        61.95695
685.27        62.03683
685.70        62.14983
686.12         62.2606
686.54        62.32164
686.97        62.32866
687.39        62.25639
687.82        62.09844
688.24        62.09717
688.66        61.98343
689.09        61.78352
689.51        61.78708
689.94        61.72726
690.36        61.71656
690.78        61.73245
691.21        61.78113
691.63        61.84687
692.06        61.92101
692.48        62.01668
692.90        62.08781
693.33        62.06739
693.75        61.94635
694.17         61.7189
694.60        61.49091
695.02        61.43626
695.44        61.55927
695.87        61.83961
696.29        62.15914
696.71        62.07058
697.14        61.67502
697.56        61.63363
697.98        61.94232
698.41        62.05736
698.83        61.95902
699.25        62.01273
699.68        62.14741
700.10        62.13224
700.52        61.93408
700.94        61.63852
701.37        61.36494
701.79        61.30868
702.21         61.4997
702.64        61.85525
703.06        62.25474
703.48        62.48447
703.90         62.4842
704.33        62.32357
704.75        62.07447
705.17        61.84683
705.59        61.69205
706.01        61.57742
706.44        61.52968
706.86        61.60466
707.28        61.78592
707.70        62.07504
708.12        62.39795
708.55        62.58198
708.97        62.61489
709.39        62.60696
709.81        62.58447
710.23        62.53421
710.66        62.47411
711.08        62.44794
711.50        62.43011
711.92        62.37556
712.34        62.28482
712.76          62.189
713.19        62.10163
713.61          62.075
714.03         62.1083
714.45        62.18916
714.87         62.3153
715.29        62.48843
715.71        62.69154
716.13        62.90001
716.56        63.06607
716.98        63.19774
717.40        63.25061
717.82        63.23765
718.24        63.13583
718.66        62.91035
719.08        62.58907
719.50        62.21537
719.92         61.8965
720.34        61.78973
720.76        61.92147
721.19         62.2187
721.61        62.62156
722.03        62.97741
722.45        63.21525
722.87        63.35714
723.29        63.37449
723.71        63.23253
724.13        62.95226
724.55        62.55943
724.97        62.14784
725.39        61.88111
725.81        61.80656
726.23        61.86619
726.65        62.01374
727.07        62.30061
727.49        62.46601
727.91        62.70787
728.33        62.92858
728.75        63.08467
729.17        63.16096
729.59        63.15152
730.01        63.10385
730.43        63.10431
730.85        63.17086
731.27        63.27568
731.69        63.35971
732.10        63.35809
732.52        63.26201
732.94        63.06014
733.36        62.80865
733.78        62.79349
734.20        62.52979
734.62        62.64115
735.04        63.02715
735.46          62.603
735.88        63.20397
736.30        63.33017
736.72         63.5247
737.13         63.6903
737.55        63.76642
737.97        63.91487
738.39         64.0386
738.81        63.68812
739.23        63.02515
739.65        62.93103
740.06        63.34122
740.48        63.48731
740.90        63.31952
741.32         63.3073
741.74        63.46531
742.16        63.56911
742.57        63.60668
742.99         63.6175
743.41        63.60623
743.83        63.56553
744.25        63.49949
744.67        63.39901
745.08        63.30276
745.50        63.25154
745.92        63.26588
746.34        63.33754
746.75        63.42558
747.17         63.4489
747.59        63.39622
748.01        63.28661
748.42        63.18122
748.84        63.17699
749.26        63.28853
749.68        63.48013
750.09        63.67029
750.51        63.72769
750.93        63.62672
751.35        63.43508
751.76        63.20366
752.18        63.00505
752.60        62.86379
753.01        62.78672
753.43        62.74202
753.85        62.69613
754.27        62.65108
754.68        62.63991
755.10        62.67924
755.52        62.78777
755.93        62.94873
756.35        63.11801
756.77        63.31861
757.18        63.51242
757.60        63.67869
758.02        64.02137
758.43         64.3914
758.85        63.98251
759.26        63.48656
759.68        63.09933
760.10        63.07273
760.51        63.35421
760.93         63.8559
761.34        63.60202
761.76        63.84024
762.18        63.83319
762.59        63.99511
763.01        64.07344
763.42        64.10882
763.84        64.08397
764.26        64.01029
764.67        63.92072
765.09        63.84808
765.50         63.6686
765.92        63.45596
766.33        63.34717
766.75         63.2923
767.16        63.25002
767.58         63.1774
768.00        63.09192
768.41         63.0573
768.83        63.22505
769.24        63.51491
769.66        63.65979
770.07          63.639
770.49        63.50225
770.90        63.38615
771.32        63.73481
771.73        64.38477
772.15        64.59525
772.56        64.33395
772.97        63.86458
773.39         63.3277
773.80        63.51119
774.22        63.32281
774.63        63.67981
775.05        64.06253
775.46        64.26909
775.88        64.19534
776.29        63.95037
776.70        63.66023
777.12         63.5151
777.53        63.58341
777.95        63.76606
778.36        63.99719
778.77        64.13399
779.19         64.1481
779.60        64.10568
780.02         64.0246
780.43        63.97677
780.84        63.99869
781.26        63.87966
781.67        63.72523
782.09        64.08069
782.50        64.77239
782.91        64.86938
783.33        64.39198
783.74        64.20894
784.15        64.35119
784.57        64.30435
784.98        64.12701
785.39        64.14651
785.81        64.38138
786.22        64.74276
786.63        65.12199
787.04        65.34441
787.46         65.3772
787.87        65.24969
788.28        65.07085
788.70        64.97993
789.11        64.99086
789.52        65.11928
789.93        65.27641
790.35        65.23537
790.76        65.00563
791.17        64.79347
791.58        64.68151
792.00        64.56765
792.41        64.47415
792.82        64.66329
793.23        65.01814
793.65        64.80131
794.06        64.22079
794.47        64.46328
794.88        65.33283
795.29        65.60838
795.71        65.20665
796.12        64.81686
796.53        64.58981
796.94        64.49163
797.35        64.58218
797.76        64.87377
798.18        65.22549
798.59        65.44666
799.00        65.45831
799.41        65.31381
799.82        65.10051
800.23        64.97339
800.64        64.97379
801.06        65.01576
801.47         65.0947
801.88        65.12469
802.29        65.07486
802.70        64.97357
803.11        64.83646
803.52        64.68139
803.93        64.54605
804.34         64.4443
804.75        64.38886
805.17        64.48373
805.58        64.78504
805.99        64.94102
806.40        64.99658
806.81        65.75852
807.22        66.86146
807.63        66.61266
808.04        65.25497
808.45        64.66562
808.86        65.00192
809.27        65.25776
809.68        65.27065
810.09        65.24682
810.50        65.14617
810.91        64.92397
811.32        64.72629
811.73        64.77947
812.14        65.11935
812.55        65.67794
812.96        66.26282
813.37        66.50597
813.78        66.30727
814.19        65.81168
814.60        65.20138
815.01         64.7192
815.42        64.43085
815.83        64.25559
816.24        64.20086
816.65        64.27837
817.05         64.4749
817.46        64.78084
817.87        65.08817
818.28        65.17441
818.69        65.00127
819.10        64.59654
819.51        64.16532
819.92        64.09298
820.33        64.46478
820.74        65.15279
821.14        65.87823
821.55        66.18984
821.96        65.98125
822.37        65.39746
822.78         64.6656
823.19        64.17063
823.60        64.04977
824.00        64.22166
824.41        64.53423
824.82         64.8216
825.23        65.00026
825.64        65.12495
826.04        65.23446
826.45        65.34499
826.86        65.47704
827.27        65.60889
827.68         65.6906
828.08        65.68433
828.49        65.53666
828.90        65.28112
829.31        65.03511
829.72        64.98524
830.12        65.19184
830.53          65.561
830.94        65.91969
831.35        65.92123
831.75          65.509
832.16        64.78087
832.57        64.01181
832.97        63.61473
833.38        63.69019
833.79        64.08528
834.20        64.62747
834.60        65.04395
835.01        65.24505
835.42        65.35101
835.82        65.37782
836.23        65.27733
836.64        65.10159
837.04        64.82594
837.45         64.6274
837.86        64.86195
838.26        65.60004
838.67        66.70276
839.08        67.81577
839.48        68.25182
839.89        67.82555
840.29        66.77112
840.70        65.60522
841.11        64.90958
841.51        64.84614
841.92        65.22715
842.33        65.86191
842.73        66.41214
843.14        66.64663
843.54         66.7183
843.95        66.71365
844.35        66.81815
844.76        67.05334
845.17        67.33357
845.57        67.55418
845.98        67.53445
846.38        67.26583
846.79        66.82374
847.19        66.34351
847.60        66.01177
848.00        65.89819
848.41        65.92302
848.81        66.06374
849.22         66.1988
849.62        66.31749
850.03        66.43893
850.43        66.54064
850.84        66.51863
851.24        66.40462
851.65        66.15701
852.05        65.95637
852.46        66.02204
852.86        66.39191
853.27        66.97482
853.67        67.51671
854.07        67.77669
854.48        67.68513
854.88        67.34686
855.29        66.84284
855.69        66.45406
856.10        66.21616
856.50        66.12411
856.90        66.10454
857.31        66.05355
857.71        65.98344
858.12        65.87502
858.52        65.77313
858.92        65.63235
859.33        65.43441
859.73        65.22647
860.13        64.98624
860.54        64.70711
860.94        64.44353
861.34        64.19686
861.75        64.01816
862.15        64.02444
862.55        64.21176
862.96        64.50758
863.36        64.87299
863.76        65.16156
864.17        65.30126
864.57        65.34269
864.97        65.24382
865.38        64.95952
865.78        64.53296
866.18        63.98188
866.58        63.43761
866.99        63.13471
867.39        63.16419
867.79        63.46381
868.19        63.91206
868.60        64.28577
869.00        64.54269
869.40        64.70966
869.80        64.82162
870.21        64.94434
870.61        65.14526
871.01         65.3373
871.41        65.43203
871.81        65.32257
872.22        64.99342
872.62        64.47417
873.02        63.93001
873.42        63.63027
873.82        63.64752
874.22        63.92381
874.63        64.23284
875.03        64.22513
875.43        63.82213
875.83        63.14334
876.23        62.46488
876.63        62.21243
877.03        62.47699
877.44        63.09217
877.84        63.80932
878.24        64.22536
878.64         64.1679
879.04        63.62335
879.44        62.89446
879.84        62.55222
880.24        62.68503
880.64        63.08228
881.04        63.44428
881.44        63.31878
881.84        62.62087
882.24        61.54332
882.65        60.45612
883.05        59.91054
883.45        60.04652
883.85        60.69772
884.25        61.58823
884.65        62.24355
885.05        62.50131
885.45        62.49348
885.85        62.37303
886.25        62.38128
886.65        62.58364
887.05        62.87456
887.45        63.16778
887.85        63.34191
888.25        63.35234
888.65        63.25357
889.04        63.08273
889.44        62.91179
889.84         62.7558
890.24        62.59834
890.64        62.43731
891.04        62.27624
891.44        62.12255
891.84        61.99445
892.24         61.8992
892.64        61.83119
893.04          61.801
893.44        61.82863
893.83        61.93032
894.23        62.08316
894.63        62.28932
895.03        62.50266
895.43        62.75409
895.83        63.10439
896.23        63.52599
896.63        63.98003
897.02        64.26955
897.42        64.11368
897.82        63.49441
898.22        62.56039
898.62        61.59122
899.01        60.99406
899.41        60.88253
899.81        61.12069
900.21        61.57058
900.61         61.9962
901.00        62.29261
901.40        62.51308
901.80         62.6271
902.20        62.58347
902.59        62.40442
902.99        62.09459
903.39        61.74296
903.79        61.51074
904.18          61.435
904.58        61.47566
904.98        61.63189
905.38        61.89593
905.77        62.24523
906.17        62.70736
906.57        63.11963
906.96        63.21267
907.36        62.93525
907.76        62.37079
908.15        61.84238
908.55        61.85421
908.95         62.5015
909.34        63.61745
909.74        64.78506
910.14        65.39201
910.53         65.2416
910.93        64.56259
911.33        63.58173
911.72        62.64385
912.12        61.95583
912.52        61.42751
912.91        61.09927
913.31        61.04531
913.70        61.25647
914.10        61.71098
914.49        62.33756
914.89         62.9047
915.29        63.34027
915.68        63.66284
916.08        63.82481
916.47        63.84786
916.87        63.75602
917.26        63.50284
917.66        63.21638
918.05        62.97898
918.45        62.82522
918.84        62.80149
919.24        62.78021
919.64         62.6594
920.03        62.44279
920.42        62.14104
920.82        61.94357
921.21        62.08725
921.61        62.58627
922.00        63.38631
922.40          64.208
922.79        64.69002
923.19        64.68511
923.58        64.32265
923.98        63.81141
924.37        63.41054
924.77        63.21815
925.16        63.12343
925.55        63.10137
925.95        63.09234
926.34        63.07769
926.74        63.07273
927.13        63.01117
927.52        62.70562
927.92        62.19478
928.31        61.54378
928.70        60.93188
929.10        60.60847
929.49        60.61484
929.89        60.81519
930.28        61.23291
930.67        61.79338
931.07        62.39632
931.46        63.12321
931.85        63.66308
932.24        63.56564
932.64        62.82875
933.03        61.57027
933.42        60.36197
933.82        60.04211
934.21        60.77123
934.60        62.36087
934.99         64.2239
935.39        65.28127
935.78        65.24052
936.17        64.30508
936.56        63.05147
936.96        62.40074
937.35        62.58063
937.74        63.30497
938.13        64.04819
938.53        64.00916
938.92        63.04585
939.31        61.51727
939.70        59.94878
940.09           59.06
940.49        58.99019
940.88        59.52543
941.27        60.38859
941.66        61.06986
942.05        61.37713
942.44        61.49676
942.84        61.50611
943.23        61.50903
943.62        61.57052
944.01        61.58125
944.40        61.67297
944.79        62.11024
945.18        62.88838
945.57        63.91187
945.97        64.78417
946.36        64.91859
946.75        64.15949
947.14        62.78149
947.53        61.19541
947.92        59.97639
948.31        59.29933
948.70        59.02452
949.09        59.09541
949.48        59.39791
949.87        59.85206
950.26        60.49326
950.65        61.20407
951.04        61.77613
951.43        62.12761
951.82        62.23805
952.21        62.17723
952.60        62.10502
952.99        62.08836
953.38        62.12898
953.77         62.1632
954.16        62.08842
954.55          61.883
954.94        61.54247
955.33        61.26068
955.72        61.36209
956.11        61.88802
956.50        62.75156
956.89        63.48908
957.28        63.32538
957.66        62.13857
958.05        60.27972
958.44        58.39627
958.83        57.40385
959.22        57.48804
959.61        58.37643
960.00        59.66518
960.39        60.57917
960.78        60.81659
961.16        60.59703
961.55        60.16936
961.94        59.83987
962.33         59.7255
962.72        59.71653
963.11        59.78492
963.49        59.94521
963.88        60.10846
964.27        60.28953
964.66        60.52936
965.04          60.901
965.43        61.35087
965.82        61.89268
966.21        62.26485
966.60        62.00816
966.98        61.04643
967.37        59.62691
967.76        58.25507
968.15        57.55267
968.53        57.62801
968.92        58.34371
969.31        59.31638
969.69        59.77539
970.08         59.4112
970.47        58.48137
970.86        57.53254
971.24        57.34234
971.63        58.06141
972.02        59.47042
972.40         61.0808
972.79        61.68951
973.17        61.02877
973.56        59.55952
973.95         57.9695
974.33        57.13936
974.72        57.26038
975.11        58.00608
975.49        59.16751
975.88        60.26185
976.26        61.06991
976.65        61.69887
977.04        61.99372
977.42        61.68562
977.81        60.76534
978.19         59.2714
978.58        57.80031
978.96        57.30236
979.35        57.96764
979.74        59.59665
980.12        61.56021
980.51        62.45743
980.89        62.02707
981.28        60.67565
981.66        59.13556
982.05        58.42801
982.43          58.813
982.82        59.95594
983.20        61.57006
983.59        63.02689
983.97        64.08992
984.35        64.87978
984.74        65.30318
985.12        65.45454
985.51        65.31544
985.89        64.85442
986.28        64.24365
986.66        63.69146
987.04        63.32151
987.43        63.08764
987.81        62.96608
988.20        62.78289
988.58         62.5191
988.96          62.154
989.35        61.76598
989.73        61.44775
990.12        61.20052
990.50         61.0661
990.88         60.8125
991.27        60.09153
991.65        58.91365
992.03        57.42356
992.42        56.20969
992.80        56.05741
993.18        57.09907
993.56        59.16914
993.95        61.47563
994.33        62.63367
994.71        62.10112
995.10        60.38026
995.48        58.39932
995.86        57.62983
996.24        58.40785
996.63        60.19309
997.01        62.50645
997.39          64.004
997.77        64.09947
998.15        63.32978
998.54        61.94404
998.92        60.16239
999.30        58.30687
999.68         56.3472
1000.06        54.90004
1000.45        54.83956
1000.83        56.37043
1001.21        59.38042
1001.59        63.13094
1001.97        65.66655
1002.35        66.16164
1002.73        65.13891
1003.12        63.55141
1003.50        62.61497
1003.88        62.74037
1004.26        63.38487
1004.64        64.48788
1005.02        65.87257
1005.40        67.25885
1005.78        68.87997
1006.16        69.84523
1006.54        68.70524
1006.92        65.51451
1007.30        60.87973
1007.69        56.56881
1008.07        54.96633
1008.45        56.70943
1008.83        61.24893
1009.21        67.24162
1009.59        71.22086
1009.97        71.42736
1010.35         68.8274
1010.73        64.59196
1011.11        60.48233
1011.49        57.27386
1011.86        54.58358
1012.24        52.69694
1012.62        52.00069
1013.00        52.46929
1013.38        54.18358
1013.76        56.77229
1014.14        58.98257
1014.52        60.08531
1014.90        60.13813
1015.28        59.57004
1015.66        59.21198
1016.04        59.30072
1016.41        59.61298
1016.79        59.85791
1017.17        59.63055
1017.55        58.86043
1017.93        57.76302
1018.31        56.79621
1018.69         56.5229
1019.06        57.05939
1019.44        58.35641
1019.82        59.83509
1020.20        60.17262
1020.58        58.96485
1020.95        56.66506
1021.33        54.48959
1021.71         53.7427
1022.09        54.61771
1022.46        56.94093
1022.84        59.89721
1023.22        61.35835
1023.60        60.45512
1023.97        57.78667
1024.35        55.14343
1024.73        54.46936
