SpectraSmart Spectrum 2.9.0.0
--------- Device Information -----------
Spectrum Name :  反射率_0
Saving Time :  2024/04/26 23:58:48
Spectro-Module Model Name : SE2030-DUVN
Spectro-Module Serial Number : OS361AC55029948
Wavelength Start : 200
Wavelength End : 1025
Wavelength Unit : Wavelength(nm)
Spectrum Unit : Reflectance(%)
-----------Spectrum Setting ------------
Integration Time : 20ms
Average : 10
Boxcar : 0
Background removal :  enabled
linearity correction :  enabled
SC :  disabled
Intensity correction :  disabled
DWT denoise :  enabled
savitzky-golay :  disabled
FFT :  disabled
Running average :  disabled
Kalman :  disabled
High pass :  disabled
---------------BEGIN--------------------
Wavelength(nm)             Reflectance(%)
200.29               0
200.75        49.34928
201.21        46.71353
201.67        44.77834
202.13        43.53643
202.58         42.8176
203.04        42.79195
203.50        44.29398
203.96        48.82187
204.42        56.75784
204.88        67.48547
205.34        77.62598
205.80        81.88922
206.26        79.27351
206.72         71.6669
207.18        63.53513
207.64        58.46704
208.10        56.47989
208.55        57.34153
209.01        59.29914
209.47        57.82894
209.93        52.68999
210.39        47.69469
210.85         45.4872
211.31        47.60025
211.77        55.24028
212.23        73.67185
212.69        120.2899
213.14        199.1271
213.60        196.5693
214.06        141.6301
214.52        103.8675
214.98        86.11118
215.44        77.41138
215.90        71.00915
216.36         66.6853
216.81        65.27248
217.27         67.3057
217.73        75.03825
218.19        86.24565
218.65         87.8866
219.11        77.13023
219.57        62.86564
220.02        54.24615
220.48        56.10678
220.94        67.73949
221.40        90.51711
221.86        122.7261
222.32        140.5836
222.77        126.2368
223.23         96.8178
223.69        70.15237
224.15        55.61449
224.61        50.60066
225.06        49.90984
225.52        51.29505
225.98        52.59598
226.44        53.26799
226.90        54.10554
227.36        54.63832
227.81         53.8888
228.27        52.03697
228.73        49.31099
229.19        46.82652
229.65        45.92586
230.10        46.60319
230.56         48.4476
231.02        50.44778
231.48        50.98418
231.93        49.77784
232.39        47.74204
232.85        45.80352
233.31        45.20504
233.77        46.06036
234.22        47.91899
234.68        50.13801
235.14        51.83435
235.60        52.76011
236.05        53.30412
236.51        53.64769
236.97        54.17266
237.43        55.05195
237.88        56.04735
238.34        57.40948
238.80        59.99477
239.26        64.25648
239.71        71.05112
240.17        79.46507
240.63        86.44624
241.08        89.91308
241.54        88.86256
242.00        86.55209
242.46        90.69629
242.91        106.6697
243.37        137.8258
243.83        185.7444
244.28        229.4343
244.74        236.1871
245.20        204.6962
245.66        161.1579
246.11        130.1717
246.57        113.5659
247.03        104.4314
247.48         98.9986
247.94        93.29496
248.40        87.66445
248.85        83.89877
249.31        82.43677
249.77        82.55078
250.22         83.7365
250.68        85.55871
251.14        87.36152
251.59        87.39449
252.05        85.29655
252.51        82.73401
252.96        79.83832
253.42        77.09554
253.88        74.60425
254.33        71.91112
254.79        71.23759
255.25        74.11952
255.70        79.96025
256.16        88.03244
256.62        94.50954
257.07        93.81979
257.53        87.91402
257.99        80.38544
258.44        74.31731
258.90        72.51782
259.35        73.56036
259.81        76.27177
260.27        78.69373
260.72        78.52012
261.18        76.10294
261.63        72.34709
262.09        68.90202
262.55        66.82463
263.00        65.97285
263.46        65.96328
263.91         65.8849
264.37        64.99817
264.83        63.23535
265.28        60.97944
265.74        58.98957
266.19        57.83625
266.65        57.63601
267.11        57.98474
267.56        58.45841
268.02        58.41628
268.47        57.67474
268.93        56.50365
269.38        55.05273
269.84        53.61974
270.30        52.29863
270.75        50.97042
271.21        49.77206
271.66        48.84656
272.12        48.19355
272.57        47.76391
273.03        47.29969
273.48        46.35562
273.94        44.94427
274.39        43.20576
274.85        41.54325
275.31        40.35639
275.76        39.67999
276.22        39.39393
276.67        39.23882
277.13        38.95398
277.58        38.41126
278.04        37.73745
278.49        36.97141
278.95        36.29973
279.40        35.70704
279.86         35.2027
280.31        34.67929
280.77        34.11402
281.22        33.46474
281.68        32.83467
282.13         32.2533
282.59        31.84864
283.04        31.59724
283.50        31.48037
283.95        31.42867
284.41        31.35341
284.86        31.22482
285.32        31.09755
285.77        30.98505
286.22        30.97532
286.68        31.08055
287.13        31.22672
287.59        31.39625
288.04        31.51603
288.50        31.58397
288.95        31.58123
289.41        31.53233
289.86        31.39569
290.32        31.22653
290.77        31.04693
291.22        30.91259
291.68        30.88329
292.13        30.98414
292.59        31.23962
293.04        31.70051
293.50        32.45816
293.95        33.49996
294.40        34.78881
294.86        36.21811
295.31        37.60897
295.77        38.91903
296.22        40.17023
296.68        41.43494
297.13        42.81713
297.58        44.35952
298.04        46.03327
298.49        47.79504
298.95        49.60041
299.40        51.41143
299.85        53.23876
300.31        55.10381
300.76        57.01014
301.21        58.96239
301.67        60.96862
302.12        62.94504
302.58        64.86411
303.03         66.6768
303.48         68.4324
303.94        70.22569
304.39        72.12307
304.84        74.16482
305.30        76.32471
305.75        78.47989
306.20         80.5433
306.66        82.49067
307.11        84.29453
307.57        85.99759
308.02        87.54903
308.47        88.98283
308.93         90.3234
309.38        91.57657
309.83        92.87626
310.29        94.25957
310.74        95.69807
311.19        97.12112
311.65        98.37552
312.10        99.39472
312.55        100.2025
313.00        100.9168
313.46        101.7343
313.91        102.6715
314.36        103.7024
314.82        104.6708
315.27        105.3457
315.72        105.6624
316.18        105.7279
316.63        105.7059
317.08        105.9007
317.53        106.3876
317.99        107.0701
318.44        107.8064
318.89        108.3287
319.35        108.5593
319.80        108.5852
320.25        108.5317
320.70         108.601
321.16        108.8471
321.61        109.2455
322.06        109.6847
322.51         109.996
322.97        110.1215
323.42         110.121
323.87        110.1401
324.32        110.4334
324.78        111.0111
325.23        111.8707
325.68        112.7085
326.13        113.0377
326.59        112.7506
327.04        112.0274
327.49        111.2399
327.94        111.0101
328.39        111.4844
328.85        112.4402
329.30         113.653
329.75        114.4448
330.20        114.5976
330.66        114.2866
331.11        113.8232
331.56        113.6256
332.01        113.8393
332.46        114.3057
332.92        114.8582
333.37         115.396
333.82        115.7886
334.27        116.1371
334.72        116.4348
335.17        116.6422
335.63        116.7682
336.08        116.8701
336.53         117.068
336.98        117.6216
337.43        118.5694
337.88         119.806
338.34        121.1154
338.79        122.2545
339.24          123.05
339.69        123.5679
340.14        123.8089
340.59        123.7998
341.05         123.637
341.50         123.336
341.95        123.0793
342.40         123.146
342.85        123.5969
343.30        124.3515
343.75        125.2893
344.20        126.1839
344.66        126.9371
345.11        127.5954
345.56        128.0876
346.01        128.3217
346.46        128.3254
346.91        128.1377
347.36        127.9428
347.81        128.0506
348.26        128.5035
348.72        129.1788
349.17        129.9097
349.62        130.4628
350.07        130.7501
350.52        130.8702
350.97          130.74
351.42        130.2385
351.87        129.4152
352.32        128.3277
352.77        127.3285
353.22        126.9308
353.67        127.2095
354.13        128.0232
354.58         128.968
355.03        129.3063
355.48        128.8508
355.93        127.8095
356.38        126.6286
356.83        125.9942
357.28        126.0357
357.73        126.5005
358.18        126.9869
358.63        126.8572
359.08        125.9577
359.53        124.5383
359.98        122.9162
360.43        121.5358
360.88        120.5222
361.33        119.7352
361.78        119.0526
362.23        118.2944
362.68        117.4101
363.13        116.4844
363.58        115.5624
364.03        114.6855
364.48        113.8566
364.93        113.0311
365.38        112.1923
365.83          111.34
366.28        110.4783
366.73         109.624
367.18        108.7693
367.63        107.8895
368.08        106.9888
368.53        106.0859
368.98        105.2202
369.43        104.4486
369.88        103.7815
370.33        103.1966
370.78        102.6624
371.23        102.1327
371.68        101.5854
372.13        101.0196
372.58        100.4329
373.03        99.82465
373.48        99.18394
373.93        98.49364
374.38        97.74296
374.83        96.92765
375.28        96.05959
375.72        95.14414
376.17        94.25135
376.62        93.36077
377.07        92.50068
377.52        91.71123
377.97        91.03123
378.42        90.53317
378.87        90.22017
379.32        90.01331
379.77         89.9222
380.22        89.96488
380.67        90.09241
381.11        90.31478
381.56        90.33454
382.01        89.77134
382.46        88.62399
382.91        87.10224
383.36         85.6322
383.81        84.79382
384.26        84.66918
384.71        85.05145
385.15        85.67395
385.60         86.0565
386.05         86.0294
386.50        85.72781
386.95        85.18361
387.40        84.46072
387.85        83.64359
388.29        82.68406
388.74        81.83305
389.19        81.22983
389.64        80.89053
390.09        80.76697
390.54        80.74344
390.98        80.59721
391.43        80.30994
391.88        79.92867
392.33        79.52614
392.78        79.18531
393.23        78.92235
393.67        78.72718
394.12        78.61451
394.57        78.31429
395.02         77.8759
395.47        77.63658
395.91        77.59669
396.36        77.42907
396.81        77.15018
397.26        76.95574
397.71        76.81202
398.15        76.57524
398.60        76.32639
399.05        75.96381
399.50         75.5794
399.95        75.49001
400.39        75.63052
400.84        75.48559
401.29        75.04704
401.74        74.69355
402.18        74.45559
402.63        74.08967
403.08        73.68787
403.53        73.47626
403.97        73.45789
404.42        73.55201
404.87        73.67361
405.32        73.62399
405.76        73.34871
406.21        73.12798
406.66        72.94013
407.11        72.38177
407.55        71.70647
408.00         71.7007
408.45        72.29852
408.90        72.79782
409.34        72.90068
409.79        72.37593
410.24        71.48394
410.68        71.04224
411.13        71.13799
411.58        71.28278
412.03        71.32816
412.47        71.27319
412.92        71.05598
413.37        70.71754
413.81        70.38733
414.26        70.32361
414.71         70.5396
415.15         70.9832
415.60        71.49169
416.05        71.85683
416.49        72.00066
416.94        71.96853
417.39        71.84555
417.83        71.74767
418.28        71.72697
418.73         71.7594
419.17        71.81178
419.62        71.83571
420.07         71.7983
420.51        71.68768
420.96        71.60426
421.41        71.54749
421.85        71.48539
422.30        71.73664
422.74        72.04697
423.19        71.57584
423.64        70.54066
424.08        70.35479
424.53        71.01672
424.98         71.3211
425.42        71.21336
425.87        71.53115
426.31        72.12881
426.76        72.07073
427.21        71.45927
427.65        71.15521
428.10        71.23195
428.54        71.31657
428.99        71.46346
429.44        71.60644
429.88        71.81103
430.33        72.57103
430.77        73.49385
431.22        73.76622
431.66        73.34466
432.11        72.53291
432.56        71.71624
433.00        71.71287
433.45        72.60091
433.89        73.48296
434.34        73.66057
434.78        74.56341
435.23        73.43055
435.67        71.92793
436.12        71.95096
436.57        72.02825
437.01        72.59736
437.46        73.25204
437.90        72.79245
438.35        72.49332
438.79        72.74207
439.24        72.81537
439.68        72.88132
440.13        73.03855
440.57        73.33549
441.02        73.48982
441.46        73.50524
441.91        74.14232
442.35        74.99361
442.80        74.70522
443.24        73.55811
443.69        73.53417
444.13        74.54205
444.58        74.93839
445.02        74.67206
445.47        74.69803
445.91        75.02918
446.36        75.27026
446.80        75.39427
447.24        75.50526
447.69        75.61061
448.13        75.69891
448.58        75.78793
449.02        75.84521
449.47        75.87442
449.91        75.85398
450.36        75.80734
450.80        75.71812
451.25          75.641
451.69        75.59656
452.13        75.60826
452.58        75.66296
453.02        75.72103
453.47        75.72584
453.91        75.65107
454.36        75.52724
454.80        75.39679
455.24        75.18356
455.69        74.89028
456.13        74.80143
456.58         74.9836
457.02        74.16936
457.46        74.03126
457.91        74.15779
458.35        74.71669
458.79        74.68122
459.24         74.0974
459.68        73.29252
460.13        72.50713
460.57        72.39529
461.01        72.92635
461.46        72.62248
461.90        73.24269
462.34         74.4156
462.79        73.70882
463.23         73.8008
463.68        73.75826
464.12        73.59665
464.56        73.21433
465.01        72.35739
465.45        71.33493
465.89        71.13985
466.34        71.59475
466.78        71.89755
467.22        72.07411
467.67         71.1217
468.11        71.80533
468.55        71.75714
468.99        71.74171
469.44        71.60013
469.88        71.36141
470.32        71.11024
470.77        70.88436
471.21        70.74851
471.65        70.70718
472.10        70.76337
472.54        70.85442
472.98        70.85599
473.42        70.73302
473.87        70.62794
474.31        70.51186
474.75        70.18993
475.20        69.80027
475.64        69.80964
476.08        70.17465
476.52          70.201
476.97        69.79109
477.41        69.67341
477.85        70.06535
478.29         69.0838
478.74        69.63256
479.18        70.36147
479.62        69.90892
480.06        69.98564
480.50        69.89677
480.95        69.94997
481.39        70.16456
481.83        69.36475
482.27        69.52773
482.72        69.83686
483.16        69.45963
483.60        69.55828
484.04        69.72347
484.48        70.08282
484.93        70.30245
485.37        70.19709
485.81        69.46852
486.25        68.85183
486.69        71.00194
487.14        72.03371
487.58        69.70912
488.02        69.92171
488.46        68.71249
488.90        68.58295
489.34        70.01774
489.79        70.98885
490.23        69.98975
490.67         69.2644
491.11        68.64291
491.55        68.58472
491.99        68.96951
492.43        68.93568
492.88        68.47602
493.32        68.28305
493.76        68.41584
494.20         68.5273
494.64        68.58246
495.08        68.76855
495.52        69.00008
495.96        68.88384
496.41        68.49979
496.85        68.49567
497.29        68.69556
497.73        68.67953
498.17         67.6883
498.61        67.49586
499.05        67.86449
499.49         68.2935
499.93        68.38328
500.37        68.45667
500.82        68.47281
501.26        68.40456
501.70        68.29034
502.14        68.76025
502.58        68.84192
503.02        69.04512
503.46         69.0719
503.90        69.10081
504.34         69.1131
504.78         69.0158
505.22        68.82378
505.66        68.56972
506.10        68.32272
506.54        68.16782
506.98        68.12305
507.42         68.1917
507.86        68.32603
508.30        68.29099
508.74        68.30258
509.18        68.19602
509.62        68.07427
510.06        67.98354
510.50        67.94174
510.94        67.92281
511.38        67.92368
511.82        67.94834
512.26        67.99107
512.70        68.05802
513.14        68.11977
513.58        68.12529
514.02        68.06893
514.46        67.96391
514.90        67.86353
515.34        67.85596
515.78        67.95641
516.22        68.13329
516.66        68.32491
517.10        68.43157
517.54        68.42783
517.98        68.34663
518.42        68.22762
518.86        68.13631
519.30        68.09311
519.74        68.07247
520.18        68.06948
520.62        68.07578
521.06        68.08714
521.50        68.12018
521.93        68.15295
522.37        68.12406
522.81        68.03828
523.25        67.90702
523.69        67.79681
524.13        67.81466
524.57        67.96957
525.01        68.21512
525.45        68.45911
525.89        68.55233
526.32        68.45155
526.76        68.22715
527.20         67.9379
527.64        67.68392
528.08         67.5041
528.52        67.36978
528.96        67.29147
529.40        67.28467
529.83        67.33739
530.27        67.45462
530.71        67.57675
531.15        67.61045
531.59         67.5387
532.03        67.38554
532.46        67.19888
532.90        67.10603
533.34        67.12286
533.78        67.17396
534.22        67.22536
534.66        67.30801
535.09         67.3563
535.53        67.23181
535.97        66.97405
536.41        66.82034
536.85        66.79581
537.28        66.77225
537.72        66.76138
538.16        66.83411
538.60        66.98258
539.04        67.18658
539.47         67.3666
539.91        67.44324
540.35        67.38679
540.79        67.22585
541.22        67.03422
541.66        66.95377
542.10          67.007
542.54        67.15248
542.97        67.30636
543.41        67.36743
543.85        67.30295
544.29        67.16319
544.72        66.99368
545.16        66.90116
545.60        66.89685
546.04        66.95546
546.47        67.06139
546.91        67.17374
547.35        67.27396
547.79        67.39592
548.22        67.50346
548.66        67.50383
549.10         67.4652
549.53        67.38503
549.97        67.30611
550.41        67.13715
550.84        66.94816
551.28         66.9782
551.72        67.16805
552.15        67.24651
552.59        67.22668
553.03          67.063
553.46        67.22686
553.90        67.19537
554.34        67.09765
554.77        67.06956
555.21        67.02356
555.65        67.01912
556.08        67.18891
556.52          67.315
556.96        67.39367
557.39        67.50989
557.83        67.60529
558.27        67.32629
558.70        66.77776
559.14        66.56452
559.57        66.68885
560.01        66.69238
560.45        66.60662
560.88        66.86391
561.32        67.37186
561.75        67.61263
562.19        67.57581
562.63        67.42611
563.06        67.25603
563.50        67.29373
563.93        67.44416
564.37        67.45659
564.80        67.35505
565.24        67.20937
565.68        66.89525
566.11        67.56474
566.55         66.8007
566.98        66.60034
567.42        66.41949
567.85        66.59271
568.29        67.08183
568.72        67.55521
569.16        68.00724
569.60        68.24419
570.03        68.24876
570.47        68.39279
570.90        68.73443
571.34        67.60827
571.77        68.26992
572.21        68.36517
572.64        68.41651
573.08        68.92435
573.51        68.20143
573.95        68.24235
574.38        68.70916
574.82        68.77378
575.25        68.31064
575.69         68.4752
576.12        68.48354
576.56        67.81565
576.99        68.13402
577.42        68.34448
577.86        68.48175
578.29        69.65985
578.73        69.32233
579.16        69.13356
579.60        68.44431
580.03        68.40028
580.47        68.07145
580.90         69.0278
581.33        69.03815
581.77        69.09376
582.20        69.14362
582.64        69.82629
583.07        69.02007
583.51         68.6814
583.94        68.41368
584.37        68.39874
584.81        68.71295
585.24        68.70568
585.68         68.3179
586.11        68.74024
586.54         69.0613
586.98        67.84368
587.41        67.28457
587.85        67.98555
588.28        68.05124
588.71         68.2122
589.15         67.8487
589.58        67.84835
590.01        67.54149
590.45        67.60091
590.88        68.57413
591.31        68.41917
591.75        67.57888
592.18        67.06894
592.61        67.14447
593.05        67.89079
593.48        69.08462
593.91        68.71944
594.35        68.52451
594.78        67.69271
595.21         67.0173
595.65         67.4082
596.08        68.77728
596.51        68.83193
596.94         67.9174
597.38        67.51288
597.81        67.72714
598.24        68.60313
598.68          67.879
599.11        67.91047
599.54        69.14613
599.97        68.73045
600.41        68.23032
600.84        67.55007
601.27        68.06297
601.70        67.99029
602.14        68.11049
602.57        67.82321
603.00        67.60152
603.43        66.93021
603.87          68.303
604.30        68.44576
604.73        68.23109
605.16        67.38527
605.60        67.66083
606.03        67.45834
606.46        67.21941
606.89        67.38422
607.32        67.73943
607.76        67.40366
608.19        67.76801
608.62        67.65614
609.05        67.60367
609.48        67.54546
609.92        68.39163
610.35        67.96434
610.78        67.63332
611.21        67.43295
611.64        67.62202
612.07        67.83878
612.50        67.69592
612.94        67.63999
613.37        67.50449
613.80        67.64292
614.23        66.91491
614.66        66.88227
615.09        67.22305
615.52        67.36934
615.96        67.15128
616.39        67.80782
616.82        67.57553
617.25        67.20109
617.68        67.08711
618.11        67.21115
618.54        67.69946
618.97        67.65987
619.40        67.13479
619.84        67.12943
620.27        67.04538
620.70        67.17065
621.13        67.23107
621.56        66.74612
621.99        65.86305
622.42        65.82855
622.85        66.67786
623.28        66.19736
623.71         66.5213
624.14        66.53185
624.57        66.96555
625.00        66.92188
625.43        66.94703
625.86        66.87488
626.29        66.95238
626.72        66.33733
627.15        66.77274
627.58          66.784
628.01        66.72432
628.44        66.89542
628.87        66.36412
629.30        66.07302
629.73        66.15725
630.16        66.44038
630.59        66.24153
631.02        66.40915
631.45        66.67556
631.88        66.85714
632.31        66.90781
632.74        66.88727
633.17        66.80727
633.60        66.66439
634.03        66.47849
634.46         66.2653
634.89         66.0528
635.32        65.86312
635.75        65.73846
636.18        65.69255
636.61        65.72729
637.04        65.79654
637.47        65.88458
637.89        66.02103
638.32        66.13808
638.75        66.16048
639.18        66.06705
639.61        65.90373
640.04        65.74351
640.47        65.62294
640.90        65.55167
641.33        65.84364
641.76        65.85745
642.18        65.97929
642.61        65.98661
643.04        65.92742
643.47        65.84564
643.90        65.82338
644.33        65.88268
644.76        65.99046
645.18        66.09495
645.61        66.09633
646.04        65.98333
646.47        65.79509
646.90        65.60278
647.33        65.50175
647.75        65.49345
648.18        65.62247
648.61         65.8604
649.04        65.88992
649.47        65.62738
649.89        66.17892
650.32        65.80891
650.75        65.76951
651.18        65.62525
651.61        65.80247
652.03        66.22682
652.46        66.31451
652.89        66.08575
653.32        66.01785
653.74        66.21942
654.17        65.96063
654.60        66.26956
655.03        66.11868
655.46        65.14016
655.88        65.73624
656.31         68.9592
656.74        72.99292
657.16          72.095
657.59        70.68857
658.02        67.45282
658.45        67.28664
658.87         66.3968
659.30        66.69144
659.73        66.13638
660.15        67.40575
660.58        66.37588
661.01        66.17297
661.44        65.81423
661.86        65.46511
662.29        65.13858
662.72        65.70587
663.14         65.8147
663.57        65.83637
664.00        65.50845
664.42        65.57237
664.85        66.04063
665.27        66.45764
665.70        66.66554
666.13         66.7091
666.55        66.56916
666.98        66.16024
667.41        65.59932
667.83        65.51474
668.26        65.28285
668.69        65.40318
669.11         65.6167
669.54        65.81842
669.96        65.96906
670.39         66.1076
670.82        66.24108
671.24        66.31874
671.67        66.35923
672.09        66.37981
672.52        66.47851
672.94         66.4602
673.37        66.35967
673.80        66.23328
674.22        66.12246
674.65         66.0285
675.07         65.9804
675.50        65.97137
675.92        65.98073
676.35        65.95214
676.77        65.86849
677.20        65.77431
677.62        65.71914
678.05        65.67671
678.47        65.63268
678.90        65.99187
679.32        65.96764
679.75        66.07879
680.17        66.08688
680.60        66.03559
681.02        65.95976
681.45         65.9362
681.87        66.00327
682.30        66.08465
682.72        66.17333
683.15        66.30087
683.57        66.42729
684.00        66.36303
684.42        66.17731
684.85        66.15762
685.27        66.31701
685.70        66.51519
686.12        66.67882
686.54        66.76677
686.97        66.75125
687.39        66.65429
687.82        66.50734
688.24         66.3806
688.66        66.29681
689.09        66.24326
689.51        66.22411
689.94        66.21278
690.36        66.20949
690.78        66.20824
691.21         66.2366
691.63        66.31794
692.06        66.45238
692.48        66.66872
692.90        66.82786
693.33        66.84171
693.75        66.67233
694.17        66.33141
694.60        65.98153
695.02        65.88477
695.44        66.06258
695.87        66.48218
696.29        66.96004
696.71        66.89497
697.14        66.38824
697.56        66.24403
697.98        66.50253
698.41         66.5926
698.83         66.5085
699.25        66.65208
699.68        66.91914
700.10        67.00224
700.52        66.84513
700.94        66.54803
701.37        66.24803
701.79        66.19631
702.21        66.38803
702.64        66.76625
703.06        67.17766
703.48        67.38136
703.90        67.31223
704.33        67.04871
704.75        66.70359
705.17        66.44801
705.59        66.34824
706.01        66.35667
706.44        66.43913
706.86        66.57314
707.28        66.72619
707.70        66.86417
708.12        66.99611
708.55        67.22026
708.97         67.4791
709.39        67.51167
709.81        67.33801
710.23         67.2458
710.66        67.26028
711.08        67.24416
711.50        67.16421
711.92        67.05676
712.34        66.92731
712.76        66.78233
713.19        66.65594
713.61        66.63883
714.03        66.73239
714.45        66.91586
714.87        67.14916
715.29        67.37238
715.71        67.55584
716.13         67.6917
716.56        67.76685
716.98        67.85749
717.40        67.93687
717.82        67.99846
718.24        67.98725
718.66        67.81696
719.08        67.50025
719.50        67.09623
719.92        66.73341
720.34        66.60105
720.76        66.73372
721.19        67.04592
721.61        67.46421
722.03        67.81054
722.45        68.01003
722.87        68.09921
723.29        68.06645
723.71        67.90228
724.13         67.6356
724.55        67.28177
724.97        66.93143
725.39        66.74221
725.81        66.75405
726.23        66.91042
726.65        67.14655
727.07        67.47293
727.49        67.64191
727.91        67.83974
728.33        67.99905
728.75         68.1201
729.17         68.1992
729.59        68.21954
730.01         68.2026
730.43        68.19035
730.85        68.19267
731.27        68.20505
731.69        68.20222
732.10        68.13828
732.52        68.00927
732.94        67.84998
733.36        67.72388
733.78        67.60292
734.20        67.48943
734.62        67.62426
735.04        68.05188
735.46        67.57523
735.88        68.18317
736.30        68.25938
736.72        68.39535
737.13         68.5294
737.55        68.61035
737.97        68.75773
738.39        68.88676
738.81        68.65325
739.23        68.17912
739.65        68.14278
740.06        68.48613
740.48        68.63412
740.90         68.5396
741.32        68.55146
741.74        68.69315
742.16        68.80909
742.57        68.88871
742.99        68.97675
743.41        69.03135
743.83        68.91242
744.25        68.64491
744.67        68.37946
745.08        68.19749
745.50        68.09068
745.92        68.09262
746.34        68.24081
746.75        68.46073
747.17        68.57905
747.59        68.56712
748.01         68.4743
748.42        68.35683
748.84        68.33027
749.26        68.42206
749.68        68.51159
750.09        68.57043
750.51        68.73629
750.93        68.90719
751.35        68.72764
751.76        68.27255
752.18        67.99867
752.60        67.93823
753.01        67.87733
753.43         67.7935
753.85        67.73143
754.27         67.6836
754.68        67.82192
755.10         67.8997
755.52        67.90368
755.93        68.02451
756.35        68.03531
756.77         68.1127
757.18        68.22342
757.60        68.35001
758.02        68.83646
758.43        69.56225
758.85        68.77312
759.26        68.87473
759.68        68.43154
760.10        68.22577
760.51        68.53926
760.93        68.71198
761.34        68.81766
761.76        68.69258
762.18        68.90606
762.59        69.40086
763.01        69.44363
763.42        69.12849
763.84        69.00765
764.26         69.1452
764.67        69.24556
765.09        69.26165
765.50        69.04869
765.92        68.68726
766.33        68.39515
766.75        68.19057
767.16        68.08084
767.58        68.05862
768.00        68.20329
768.41        68.48129
768.83        68.77475
769.24        68.97507
769.66        68.98785
770.07        68.85711
770.49        68.63252
770.90        68.48492
771.32         68.9169
771.73        69.72015
772.15        70.00236
772.56        69.70419
772.97        69.17407
773.39        68.60606
773.80        68.68772
774.22        68.61796
774.63        69.07401
775.05          69.566
775.46        69.80677
775.88        69.67484
776.29        69.30697
776.70        68.88442
777.12        68.69374
777.53        68.82475
777.95        69.14354
778.36        69.53802
778.77        69.77113
779.19        69.78619
779.60        69.71597
780.02        69.59584
780.43         69.4358
780.84        69.32928
781.26        69.24815
781.67        69.26542
782.09        69.69765
782.50        70.34582
782.91        70.39176
783.33        69.87265
783.74        69.64948
784.15        69.76151
784.57        69.68713
784.98        69.49094
785.39        69.51923
785.81        69.78771
786.22        70.19576
786.63        70.61942
787.04        70.85945
787.46          70.882
787.87        70.72865
788.28        70.50823
788.70         70.3721
789.11        70.33862
789.52        70.38474
789.93        70.46795
790.35        70.51054
790.76        70.50385
791.17        70.47193
791.58        70.43768
792.00        70.39157
792.41         70.3556
792.82        70.38232
793.23        70.45499
793.65        70.39218
794.06         70.2719
794.47        70.47038
794.88         70.8837
795.29        71.03128
795.71        70.84717
796.12        70.63788
796.53        70.48352
796.94        70.35469
797.35        70.32255
797.76        70.55041
798.18        70.90923
798.59        71.07693
799.00        70.97697
799.41        70.75639
799.82        70.52409
800.23        70.41297
800.64        70.46344
801.06        70.60268
801.47        70.77927
801.88        70.81413
802.29        70.66367
802.70        70.38605
803.11        70.07561
803.52        69.88272
803.93        69.87114
804.34        70.00459
804.75        70.22992
805.17        70.51971
805.58        70.88368
805.99        71.06889
806.40         71.1167
806.81        71.65971
807.22        72.42995
807.63        72.12791
808.04        70.95183
808.45        70.36029
808.86        70.48872
809.27        70.57893
809.68        70.52337
810.09        70.49953
810.50        70.48025
810.91        70.42103
811.32        70.41856
811.73        70.62375
812.14         71.0504
812.55        71.64433
812.96        72.22856
813.37        72.47369
813.78        72.29008
814.19        71.79855
814.60        71.18996
815.01        70.72272
815.42        70.46457
815.83        70.34761
816.24        70.33774
816.65        70.36543
817.05        70.40852
817.46        70.48074
817.87        70.58102
818.28        70.64609
818.69        70.66557
819.10        70.62312
819.51        70.60029
819.92        70.75499
820.33        71.10467
820.74        71.59155
821.14        72.05226
821.55        72.22111
821.96        72.04938
822.37        71.62309
822.78        71.11605
823.19        70.82703
823.60        70.84779
824.00        71.11421
824.41        71.46442
824.82        71.72608
825.23        71.81503
825.64        71.78781
826.04        71.67244
826.45        71.47042
826.86        71.22095
827.27        70.92786
827.68        70.62917
828.08        70.42351
828.49        70.29377
828.90        70.25021
829.31        70.31191
829.72         70.4989
830.12        70.81564
830.53        71.17896
830.94        71.49746
831.35         71.5732
831.75         71.3774
832.16        70.95259
832.57        70.43435
832.97        70.02018
833.38        69.78773
833.79        69.68023
834.20        69.71573
834.60        69.91067
835.01        70.24611
835.42        70.75528
835.82        71.31723
836.23        71.63321
836.64        71.65872
837.04        71.42352
837.45        71.16039
837.86        71.32855
838.26        72.03641
838.67        73.10204
839.08        74.14112
839.48        74.42812
839.89        73.78488
840.29        72.49237
840.70        71.13535
841.11        70.36066
841.51        70.34131
841.92        70.86582
842.33        71.69803
842.73        72.41566
843.14        72.74108
843.54        72.84148
843.95        72.82502
844.35        72.92441
844.76        73.17383
845.17        73.47422
845.57        73.69844
845.98        73.63022
846.38        73.26041
846.79         72.6813
847.19        72.07547
847.60        71.69704
848.00        71.63042
848.41        71.77441
848.81         72.0527
849.22        72.24679
849.62        72.32329
850.03        72.32513
850.43        72.28489
850.84        72.18394
851.24        72.08127
851.65        71.90276
852.05        71.79407
852.46        71.90125
852.86          72.242
853.27        72.75632
853.67        73.21207
854.07        73.40551
854.48        73.27579
854.88           72.92
855.29        72.41466
855.69        72.04733
856.10        71.84775
856.50        71.81837
856.90        71.88213
857.31        71.92758
857.71        71.96761
858.12        71.97617
858.52        71.99113
858.92        71.95222
859.33        71.83031
859.73        71.66533
860.13        71.44527
860.54        71.18658
860.94        70.94872
861.34        70.72979
861.75        70.53848
862.15        70.42427
862.55        70.38049
862.96        70.36755
863.36        70.43597
863.76        70.57956
864.17        70.76441
864.57         70.9962
864.97        71.16279
865.38        71.10706
865.78        70.83443
866.18        70.39342
866.58        69.91161
866.99        69.62067
867.39        69.62301
867.79        69.84338
868.19        70.20878
868.60        70.57516
869.00         70.9135
869.40        71.23313
869.80        71.50103
870.21         71.6497
870.61        71.71664
871.01        71.66182
871.41        71.47231
871.81        71.13814
872.22        70.67325
872.62        70.09325
873.02         69.5457
873.42        69.26872
873.82        69.32161
874.22        69.64574
874.63        70.04537
875.03        70.21632
875.43        70.07043
875.83        69.69701
876.23        69.27464
876.63        69.08662
877.03        69.20274
877.44        69.50484
877.84        69.87096
878.24        70.09997
878.64        70.08702
879.04        69.78235
879.44        69.37037
879.84        69.22421
880.24        69.38202
880.64        69.68416
881.04        69.91529
881.44         69.7569
881.84        69.15379
882.24        68.25672
882.65        67.31517
883.05        66.69315
883.45        66.51031
883.85        66.68188
884.25        67.10832
884.65        67.60243
885.05        68.07203
885.45         68.5442
885.85        69.01599
886.25        69.49809
886.65        69.97713
887.05        70.39719
887.45        70.70596
887.85        70.84396
888.25        70.79311
888.65        70.58482
889.04        70.24973
889.44        69.86139
889.84        69.44518
890.24        69.00756
890.64        68.59882
891.04        68.29227
891.44        68.11437
891.84        68.07085
892.24        68.10274
892.64        68.10175
893.04        68.05483
893.44        68.00159
893.83        68.03168
894.23        68.24084
894.63        68.65836
895.03        69.20238
895.43        69.79486
895.83        70.32677
896.23        70.72099
896.63        70.96449
897.02        70.99651
897.42        70.75689
897.82        70.27269
898.22        69.63998
898.62        68.94199
899.01        68.28233
899.41        67.74522
899.81        67.30632
900.21        67.09923
900.61        67.32758
901.00        67.97202
901.40        68.91902
901.80        69.86243
902.20        70.30696
902.59        70.15189
902.99        69.55267
903.39        68.72785
903.79        68.05953
904.18        67.68214
904.58        67.47472
904.98        67.50288
905.38        67.86748
905.77        68.53614
906.17        69.52809
906.57        70.47346
906.96        70.73678
907.36        70.18661
907.76        69.00217
908.15        67.77905
908.55        67.47016
908.95        68.28114
909.34        69.91944
909.74        71.71454
910.14        72.62688
910.53        72.33588
910.93        71.20991
911.33        69.68692
911.72        68.42922
912.12         67.7365
912.52        67.41772
912.91        67.36428
913.31        67.44468
913.70        67.58865
914.10        67.82008
914.49        68.21446
914.89        68.76622
915.29        69.46309
915.68        70.27936
916.08        70.91366
916.47        70.98186
916.87        70.44871
917.26        69.40855
917.66        68.39385
918.05        68.05711
918.45        68.52271
918.84        69.66348
919.24        70.92567
919.64        71.45733
920.03        71.04423
920.42        69.91781
920.82        68.69785
921.21        68.28468
921.61        68.87315
922.00        70.23573
922.40        71.79002
922.79        72.65096
923.19        72.51116
923.58        71.68439
923.98        70.67074
924.37        70.12876
924.77        70.23653
925.16        70.73129
925.55        71.33913
925.95        71.58693
926.34        71.35037
926.74        70.80016
927.13        70.09415
927.52        69.38821
927.92        68.82419
928.31        68.34805
928.70        68.03908
929.10        67.99666
929.49        68.20321
929.89        68.57043
930.28        69.11192
930.67        69.71501
931.07        70.27338
931.46        70.86364
931.85        71.21761
932.24        70.97951
932.64        70.17664
933.03        68.91029
933.42        67.72208
933.82        67.38905
934.21        68.06115
934.60        69.58143
934.99        71.38071
935.39        72.41033
935.78        72.39432
936.17        71.50445
936.56        70.33054
936.96        69.81813
937.35        70.18672
937.74        71.14448
938.13        72.08016
938.53        72.05766
938.92        70.92136
939.31         69.0836
939.70        67.20901
940.09        66.22289
940.49        66.30557
940.88        67.19259
941.27        68.48486
941.66        69.44719
942.05        69.80486
942.44        69.79303
942.84        69.59282
943.23        69.47806
943.62        69.55781
944.01        69.67314
944.40        69.85191
944.79        70.19536
945.18        70.66557
945.57        71.22583
945.97        71.62579
946.36        71.52917
946.75        70.84357
947.14        69.77134
947.53        68.55817
947.92        67.53605
948.31        66.83013
948.70        66.36987
949.09         66.2315
949.48        66.53174
949.87        67.24139
950.26        68.29709
950.65         69.4411
951.04        70.24033
951.43        70.54458
951.82        70.41742
952.21        69.99333
952.60        69.53677
952.99        69.17543
953.38        68.88888
953.77         68.6786
954.16        68.53864
954.55        68.46288
954.94        68.44992
955.33        68.57938
955.72        68.95554
956.11         69.5581
956.50        70.33817
956.89        70.98138
957.28         70.9806
957.66        70.24891
958.05        69.00957
958.44        67.71745
958.83         67.0348
959.22        67.08377
959.61        67.66051
960.00        68.45251
960.39        68.86613
960.78        68.70099
961.16        68.16826
961.55          67.476
961.94        66.83118
962.33        66.33541
962.72        65.92084
963.11        65.68778
963.49         65.8813
963.88         66.4436
964.27        67.27827
964.66        68.21456
965.04        69.04378
965.43        69.64449
965.82        70.10832
966.21        70.24682
966.60        69.76932
966.98        68.68457
967.37         67.1877
967.76        65.81821
968.15        65.25275
968.53         65.5876
968.92         66.6804
969.31        68.02708
969.69        68.59092
970.08        67.99036
970.47        66.60634
970.86        65.13799
971.24        64.56889
971.63        65.10634
972.02        66.45318
972.40        68.17899
972.79        69.14499
973.17        69.02438
973.56        68.20954
973.95        67.14818
974.33        66.40236
974.72        66.14072
975.11        66.13869
975.49        66.39027
975.88        66.82898
976.26         67.4233
976.65        68.14579
977.04        68.80079
977.42        69.03149
977.81        68.74225
978.19        68.00489
978.58        67.16536
978.96        66.77088
979.35        66.93358
979.74        67.53304
980.12        68.33256
980.51        68.65974
980.89        68.46526
981.28        67.94791
981.66        67.40279
982.05        67.21916
982.43        67.49988
982.82        68.05967
983.20        68.92194
983.59        70.00494
983.97        71.27982
984.35        72.73039
984.74        73.89136
985.12        74.23975
985.51        73.62536
985.89        72.24031
986.28        70.76532
986.66        70.16244
987.04        70.70866
987.43        72.11312
987.81        73.84896
988.20        74.72499
988.58        74.35997
988.96        73.01893
989.35        71.26534
989.73        69.87006
990.12        69.04012
990.50        68.65379
990.88        68.33529
991.27        67.48764
991.65        66.08094
992.03         64.4128
992.42        63.21159
992.80        63.42553
993.18        65.20568
993.56        68.26356
993.95        71.65833
994.33         73.7335
994.71        73.75117
995.10        72.27382
995.48         70.1993
995.86        68.97739
996.24         69.0005
996.63        69.72944
997.01        70.98878
997.39        72.02032
997.77        72.44444
998.15        72.62818
998.54        72.48515
998.92        71.69724
999.30        70.41463
999.68        68.72012
1000.06        67.28851
1000.45        67.08228
1000.83        68.35947
1001.21        70.96114
1001.59        74.18089
1001.97        76.21138
1002.35         76.3307
1002.73        75.07912
1003.12         73.4258
1003.50        72.53558
1003.88         72.7877
1004.26        73.65598
1004.64        74.95789
1005.02        76.26859
1005.40        77.25873
1005.78        78.25396
1006.16        78.56968
1006.54        77.09214
1006.92         73.9442
1007.30        69.60054
1007.69        65.73972
1008.07        64.61594
1008.45        66.83279
1008.83        71.93573
1009.21        78.43565
1009.59        82.52209
1009.97        82.34533
1010.35        78.95262
1010.73        73.97458
1011.11        69.82925
1011.49        67.32753
1011.86        65.80994
1012.24        65.12675
1012.62        65.05524
1013.00        65.45157
1013.38        66.53455
1013.76        68.17594
1014.14        69.73952
1014.52        70.79835
1014.90        71.24712
1015.28        71.18312
1015.66        70.96522
1016.04        70.71735
1016.41        70.35878
1016.79        69.85318
1017.17        69.25335
1017.55        68.63027
1017.93        68.07983
1018.31        67.70945
1018.69         67.5846
1019.06        67.75238
1019.44        68.24757
1019.82        68.93616
1020.20         69.4769
1020.58        69.62241
1020.95        69.20092
1021.33        68.77935
1021.71        68.93483
1022.09        69.84717
1022.46        71.84788
1022.84        73.90322
1023.22        73.74091
1023.60        70.79326
1023.97        65.62364
1024.35        61.52604
1024.73        62.44605
