SpectraSmart Spectrum 2.9.0.0
--------- Device Information -----------
Spectrum Name :  反射率_0
Saving Time :  2024/04/26 23:50:57
Spectro-Module Model Name : SE2030-DUVN
Spectro-Module Serial Number : OS361AC55029948
Wavelength Start : 200
Wavelength End : 1025
Wavelength Unit : Wavelength(nm)
Spectrum Unit : Reflectance(%)
-----------Spectrum Setting ------------
Integration Time : 20ms
Average : 10
Boxcar : 0
Background removal :  enabled
linearity correction :  enabled
SC :  disabled
Intensity correction :  disabled
DWT denoise :  enabled
savitzky-golay :  disabled
FFT :  disabled
Running average :  disabled
Kalman :  disabled
High pass :  disabled
---------------BEGIN--------------------
Wavelength(nm)             Reflectance(%)
200.29               0
200.75        30.13816
201.21         36.2212
201.67        42.09149
202.13        45.33625
202.58        45.83356
203.04        44.71769
203.50        42.53886
203.96        40.84022
204.42        40.81779
204.88        41.93288
205.34        43.61874
205.80        44.86158
206.26        45.18716
206.72        45.07146
207.18        44.75935
207.64         44.3062
208.10        43.81884
208.55        43.52375
209.01        43.18117
209.47        43.47239
209.93        44.46921
210.39        45.48991
210.85        46.85501
211.31        49.58646
211.77        54.92298
212.23         66.5509
212.69        93.90095
213.14        134.3883
213.60        121.2859
214.06        83.80943
214.52        61.72305
214.98         53.3378
215.44        51.19705
215.90        51.64747
216.36        52.82451
216.81        52.05286
217.27         48.6407
217.73        43.16814
218.19         35.8546
218.65        31.14223
219.11         32.4741
219.57        36.51326
220.02        41.42075
220.48        48.19039
220.94        58.02176
221.40        73.14227
221.86        93.37485
222.32        106.0506
222.77        100.0506
223.23        84.13506
223.69        68.03513
224.15        57.06052
224.61        50.54593
225.06        46.35574
225.52        44.08666
225.98        43.19098
226.44        43.24897
226.90          44.215
227.36        45.52548
227.81        46.12776
228.27        45.85954
228.73        44.90213
229.19        43.77689
229.65        43.11784
230.10        42.98157
230.56        43.21558
231.02        43.43417
231.48        43.09436
231.93        42.12133
232.39        40.95426
232.85         40.0351
233.31        39.99267
233.77        40.82239
234.22        42.30561
234.68        43.88449
235.14         44.8005
235.60        44.84968
236.05        44.27631
236.51        43.40332
236.97        42.93764
237.43        43.23454
237.88        44.18503
238.34        45.67994
238.80        47.80227
239.26        50.69968
239.71        54.96268
240.17        60.44479
240.63        66.41482
241.08        72.16693
241.54        76.86436
242.00        81.18222
242.46        87.65302
242.91        98.73264
243.37        115.3095
243.83        138.4508
244.28        160.0519
244.74        165.1796
245.20        152.6904
245.66        132.6107
246.11        114.0861
246.57        98.76238
247.03        84.22259
247.48        72.09982
247.94        66.95568
248.40        68.51982
248.85        73.19416
249.31        77.78807
249.77        79.50994
250.22        78.17194
250.68        73.91061
251.14        67.45144
251.59        62.76519
252.05          62.788
252.51        66.36982
252.96        69.71518
253.42        69.58301
253.88        66.38638
254.33        61.66212
254.79        58.69823
255.25        59.94942
255.70        64.93217
256.16        72.33176
256.62        78.73788
257.07        79.12864
257.53        74.86034
257.99        69.07633
258.44        64.18412
258.90        62.43132
259.35        62.72915
259.81        64.20596
260.27        65.56351
260.72        65.32603
261.18        63.74002
261.63        61.32197
262.09        59.07605
262.55        57.49497
263.00         56.4907
263.46         55.9196
263.91        55.32026
264.37         54.4587
264.83         53.2778
265.28         51.9053
265.74        50.70031
266.19        49.77914
266.65        49.21295
267.11        48.81108
267.56        48.44303
268.02        47.92766
268.47        47.20995
268.93        46.39095
269.38        45.45393
269.84        44.42799
270.30        43.33316
270.75        42.16459
271.21        41.07866
271.66        40.24861
272.12        39.70062
272.57        39.35538
273.03        39.04275
273.48        38.47541
273.94        37.64625
274.39        36.62152
274.85        35.61433
275.31        34.78356
275.76        34.14059
276.22        33.65284
276.67        33.21582
277.13        32.77284
277.58        32.25568
278.04        31.72591
278.49        31.15206
278.95        30.59789
279.40        30.03368
279.86         29.5115
280.31         28.9869
280.77        28.50286
281.22        28.02509
281.68         27.5957
282.13        27.20748
282.59         26.9277
283.04        26.72806
283.50        26.61655
283.95        26.52568
284.41        26.36151
284.86        26.11789
285.32        25.85913
285.77        25.66079
286.22        25.68926
286.68        25.95638
287.13        26.35305
287.59        26.79525
288.04        27.11018
288.50        27.26558
288.95        27.28512
289.41        27.20224
289.86        27.00169
290.32        26.75208
290.77        26.46496
291.22          26.245
291.68        26.23197
292.13         26.4518
292.59        26.89719
293.04        27.52192
293.50        28.25633
293.95        29.06328
294.40        29.96895
294.86        30.96784
295.31        32.04234
295.77        33.19799
296.22        34.41275
296.68        35.71964
297.13        37.16227
297.58        38.75246
298.04        40.47672
298.49        42.27728
298.95        44.08054
299.40          45.846
299.85        47.58569
300.31        49.33635
300.76        51.13833
301.21        53.00531
301.67        54.93357
302.12        56.84336
302.58        58.70392
303.03        60.46263
303.48        62.16197
303.94        63.87529
304.39        65.64492
304.84        67.50542
305.30        69.44399
305.75        71.36204
306.20        73.19778
306.66        74.94745
307.11        76.60156
307.57        78.20243
308.02        79.70876
308.47        81.14701
308.93        82.51698
309.38        83.84998
309.83        85.31075
310.29        86.92122
310.74        88.63631
311.19        90.27217
311.65        91.49963
312.10        92.23401
312.55        92.56544
313.00        92.77922
313.46        93.32466
313.91        94.27183
314.36        95.51682
314.82         96.7716
315.27        97.57782
315.72        97.81049
316.18         97.6568
316.63         97.3655
317.08        97.36623
317.53         97.7738
317.99         98.4423
318.44        99.21566
318.89        99.81106
319.35        100.1339
319.80        100.2811
320.25        100.3392
320.70         100.442
321.16        100.6331
321.61        100.8989
322.06         101.183
322.51        101.4151
322.97         101.561
323.42        101.6478
323.87        101.7698
324.32        102.0935
324.78        102.6085
325.23        103.3403
325.68        104.0183
326.13        104.2104
326.59        103.8344
327.04        103.0514
327.49        102.2417
327.94        102.0374
328.39        102.5809
328.85        103.6572
329.30        104.9959
329.75        105.8497
330.20        105.9828
330.66        105.5891
331.11         105.028
331.56        104.8097
332.01        105.0992
332.46        105.7038
332.92        106.4221
333.37        107.0778
333.82        107.5169
334.27        107.8684
334.72         108.119
335.17        108.2177
335.63        108.1908
336.08        108.1004
336.53        108.1356
336.98        108.6678
337.43        109.7578
337.88        111.2683
338.34        112.9065
338.79        114.2821
339.24        115.1724
339.69        115.6722
340.14         115.818
340.59        115.7059
341.05        115.4585
341.50        115.0733
341.95        114.7333
342.40        114.7171
342.85        115.0915
343.30        115.7983
343.75        116.7159
344.20        117.6082
344.66         118.373
345.11        119.0417
345.56        119.5746
346.01        119.9297
346.46         120.132
346.91        120.2066
347.36        120.2401
347.81        120.3913
348.26        120.6916
348.72        121.0762
349.17        121.5329
349.62        122.0712
350.07        122.6512
350.52        123.2846
350.97        123.7442
351.42         123.669
351.87        123.0346
352.32        121.9727
352.77        120.9017
353.22        120.4394
353.67        120.6994
354.13        121.4983
354.58        122.4479
355.03        122.8453
355.48        122.5009
355.93        121.6271
356.38        120.6059
356.83        120.0149
357.28        119.9739
357.73        120.2688
358.18        120.5874
358.63        120.4417
359.08        119.7103
359.53        118.5842
359.98        117.3064
360.43        116.2123
360.88        115.3929
361.33        114.7415
361.78        114.1444
362.23        113.4351
362.68        112.5782
363.13        111.6559
363.58        110.7464
364.03        109.9468
364.48        109.2726
364.93         108.669
365.38        108.0878
365.83         107.469
366.28        106.7944
366.73        106.0906
367.18        105.3626
367.63        104.6106
368.08        103.8442
368.53        103.0684
368.98        102.3121
369.43        101.6194
369.88        101.0001
370.33        100.4432
370.78        99.92427
371.23        99.40714
371.68        98.87392
372.13        98.31972
372.58        97.75699
373.03        97.20374
373.48        96.65829
373.93        96.11719
374.38        95.52952
374.83        94.82586
375.28        94.00584
375.72        93.07394
376.17        92.19572
376.62        91.50401
377.07        91.03413
377.52        90.77213
377.97        90.57037
378.42        90.19862
378.87        89.61472
379.32        88.85995
379.77        88.17402
380.22        87.91167
380.67        88.10088
381.11        88.64989
381.56        89.12032
382.01        88.87238
382.46        87.81026
382.91        86.22675
383.36        84.61987
383.81        83.66675
384.26        83.48615
384.71        83.84086
385.15        84.45641
385.60        84.85028
386.05         84.8538
386.50        84.61148
386.95        84.17408
387.40        83.62511
387.85        83.03189
388.29        82.31536
388.74        81.67793
389.19        81.19693
389.64        80.88632
390.09        80.73477
390.54        80.64254
390.98        80.41325
391.43        80.04221
391.88        79.56776
392.33        79.12119
392.78        78.81659
393.23        78.65692
393.67        78.76003
394.12        79.01045
394.57        78.60753
395.02        77.74059
395.47        77.56831
395.91        78.03942
396.36        78.04549
396.81        77.57195
397.26        77.26796
397.71        77.15128
398.15        76.96719
398.60        76.80666
399.05        76.56707
399.50        76.29991
399.95         76.3353
400.39        76.56207
400.84        76.34026
401.29        75.56106
401.74        75.19634
402.18        75.18987
402.63        74.82085
403.08        74.19343
403.53        73.90708
403.97        73.98081
404.42        74.14817
404.87        74.28719
405.32         74.2337
405.76        73.92783
406.21         73.6108
406.66        73.34631
407.11        72.89785
407.55        72.49981
408.00        72.85413
408.45        73.77977
408.90        74.27616
409.34        74.10149
409.79        73.49631
410.24        72.72249
410.68          72.231
411.13        72.11978
411.58        72.13963
412.03         72.1633
412.47        72.09412
412.92        71.86844
413.37        71.56047
413.81        71.27241
414.26        71.21812
414.71        71.40039
415.15        71.76803
415.60        72.18031
416.05        72.47813
416.49        72.59935
416.94        72.57825
417.39         72.4699
417.83        72.34591
418.28        72.24834
418.73        72.16331
419.17        72.10823
419.62        72.11492
420.07        72.17381
420.51        72.25182
420.96        72.36708
421.41        72.44343
421.85        72.43136
422.30         72.5293
422.74        72.60918
423.19         72.3317
423.64        71.79745
424.08        71.66067
424.53        71.91821
424.98        72.06243
425.42        72.07861
425.87        72.28789
426.31        72.62173
426.76         72.6897
427.21        72.51517
427.65        72.36532
428.10        72.26945
428.54        72.24232
428.99        72.33935
429.44        72.25686
429.88         72.1541
430.33        72.80168
430.77        73.83494
431.22        74.32816
431.66        74.14732
432.11        73.50903
432.56        72.70139
433.00         72.4594
433.45        73.00169
433.89        73.70026
434.34        73.83974
434.78        75.41831
435.23        74.14837
435.67        72.72102
436.12        72.66297
436.57         72.9351
437.01        73.94202
437.46        74.38966
437.90        73.84555
438.35        73.39931
438.79        73.34721
439.24        73.26781
439.68        73.23169
440.13        73.40675
440.57        73.81853
441.02        73.93673
441.46        73.80253
441.91        74.66178
442.35         76.0342
442.80        75.48845
443.24          74.502
443.69        74.32997
444.13        75.27271
444.58        75.70433
445.02        75.53271
445.47        75.44992
445.91        75.52441
446.36        75.72469
446.80        76.03655
447.24        76.35728
447.69        76.63357
448.13        76.84033
448.58        76.96799
449.02        76.98973
449.47        76.91707
449.91        76.74323
450.36        76.51574
450.80        76.23029
451.25        75.98744
451.69        75.87635
452.13        75.93084
452.58        76.11245
453.02        76.34756
453.47        76.51939
453.91        76.57547
454.36        76.55939
454.80        76.48906
455.24        76.26048
455.69        75.88298
456.13        75.62962
456.58        75.63899
457.02        74.78172
457.46        74.77362
457.91        74.97754
458.35        75.55812
458.79        75.55125
459.24        74.97796
459.68        74.18079
460.13         73.4522
460.57        73.20267
461.01        73.58447
461.46        73.54851
461.90        74.28229
462.34        74.90546
462.79        74.84526
463.23        74.87946
463.68        74.69625
464.12        74.35929
464.56        73.89086
465.01        73.13692
465.45        72.30742
465.89         72.3449
466.34        73.00113
466.78        73.12498
467.22        72.75336
467.67        72.19083
468.11        72.52699
468.55        72.62698
468.99        72.69914
469.44        72.61566
469.88        72.37888
470.32        72.11752
470.77        71.88014
471.21        71.68673
471.65        71.54641
472.10        71.46896
472.54        71.44359
472.98        71.41172
473.42        71.34476
473.87        71.41384
474.31        71.50302
474.75        71.16622
475.20        70.58215
475.64        70.51404
476.08        70.91978
476.52        70.96553
476.97        70.60063
477.41        70.45473
477.85        70.68687
478.29        70.12374
478.74        70.85875
479.18        70.88567
479.62        70.82352
480.06        70.77039
480.50        70.70636
480.95        70.68166
481.39        70.72186
481.83        70.38742
482.27        70.24019
482.72        70.92928
483.16        70.59445
483.60        70.72449
484.04         70.6668
484.48        71.02531
484.93        70.90961
485.37        70.83337
485.81        69.68584
486.25        69.96585
486.69        71.68305
487.14        72.39774
487.58         70.6046
488.02        70.68156
488.46        69.86498
488.90        69.44325
489.34         70.8821
489.79        71.78194
490.23        70.55896
490.67        69.85011
491.11        69.34335
491.55        69.33344
491.99        69.68845
492.43        69.70004
492.88        69.35844
493.32        69.25214
493.76        69.41112
494.20         69.5174
494.64        69.54547
495.08         69.6071
495.52        69.66412
495.96        69.60155
496.41        69.41984
496.85        69.28468
497.29        69.13041
497.73        69.06454
498.17        68.27408
498.61        68.41984
499.05        68.72459
499.49        68.93497
499.93        68.66601
500.37        68.72099
500.82        69.00246
501.26         69.1169
501.70        69.05602
502.14         69.0304
502.58         69.0893
503.02        69.18839
503.46        69.33173
503.90        69.55396
504.34        69.73991
504.78        69.68817
505.22        69.37488
505.66        68.85625
506.10        68.31979
506.54        68.09395
506.98        68.21949
507.42        68.54303
507.86        68.86156
508.30        69.06534
508.74        69.06833
509.18        68.89298
509.62        68.62939
510.06        68.45224
510.50        68.40927
510.94        68.43694
511.38        68.49967
511.82        68.54639
512.26        68.55817
512.70        68.56624
513.14        68.56859
513.58        68.55254
514.02        68.52252
514.46        68.47376
514.90        68.43597
515.34        68.47027
515.78        68.57985
516.22        68.71865
516.66        68.83756
517.10        68.90376
517.54        68.87869
517.98        68.69265
518.42        68.40234
518.86        68.19406
519.30        68.10194
519.74        68.03741
520.18        68.01241
520.62        68.06934
521.06        68.20212
521.50         68.4105
521.93        68.62202
522.37        68.69307
522.81        68.60722
523.25        68.39352
523.69        68.17561
524.13        68.15241
524.57         68.3532
525.01        68.70618
525.45        69.06139
525.89        69.17566
526.32         68.9877
526.76        68.60479
527.20        68.15062
527.64        67.82224
528.08        67.68053
528.52        67.66426
528.96        67.73083
529.40        67.81432
529.83         67.8812
530.27        67.96157
530.71        68.03184
531.15        68.05605
531.59        68.03067
532.03        67.95589
532.46         67.8498
532.90        67.79694
533.34        67.80219
533.78        67.80685
534.22        67.79666
534.66        67.83141
535.09        67.85408
535.53        67.71712
535.97        67.45356
536.41        67.29126
536.85         67.2542
537.28        67.22178
537.72        67.20868
538.16        67.29024
538.60        67.45705
539.04        67.67873
539.47        67.88096
539.91        67.99392
540.35        67.98618
540.79        67.88732
541.22         67.7391
541.66        67.63351
542.10        67.59012
542.54        67.58447
542.97        67.59591
543.41        67.62233
543.85        67.64665
544.29        67.68568
544.72        67.71149
545.16        67.71239
545.60        67.67276
546.04        67.61163
546.47        67.57734
546.91        67.57572
547.35        67.73333
547.79        67.91145
548.22        68.06934
548.66        68.12481
549.10        68.10556
549.53        67.89322
549.97        67.59816
550.41         67.3538
550.84        67.26897
551.28        67.45033
551.72        67.76646
552.15        67.91252
552.59        68.05788
553.03        67.46593
553.46        67.79206
553.90        67.60245
554.34         67.5309
554.77        67.57262
555.21        67.83043
555.65        67.47909
556.08        67.82985
556.52        67.80672
556.96        67.77387
557.39        67.72456
557.83        67.66322
558.27        67.43756
558.70        67.08447
559.14        66.91726
559.57        66.93102
560.01        66.88864
560.45        66.83684
560.88        67.09089
561.32        67.56773
561.75        67.83575
562.19         67.8591
562.63        67.69689
563.06        67.44646
563.50        67.41866
563.93        67.53336
564.37        67.51792
564.80        67.40122
565.24         67.2647
565.68        66.98107
566.11        67.68958
566.55        66.96239
566.98        66.80563
567.42        66.64468
567.85        66.79144
568.29         67.2203
568.72        67.57721
569.16        67.86845
569.60        68.23273
570.03        68.12285
570.47        68.35696
570.90        68.74547
571.34        67.75701
571.77        68.27739
572.21        68.67943
572.64        68.23964
573.08        68.98898
573.51        67.96411
573.95        68.18363
574.38        68.95025
574.82        68.81992
575.25        68.33174
575.69        68.51172
576.12        68.60536
576.56        68.10858
576.99        68.04732
577.42        68.15456
577.86         68.1848
578.29        69.36622
578.73         69.3673
579.16        69.20138
579.60        68.30997
580.03        68.28503
580.47        68.27086
580.90        69.16233
581.33        68.95805
581.77        69.57994
582.20        69.16463
582.64        69.71391
583.07        69.21542
583.51        68.93491
583.94        68.64227
584.37        68.59584
584.81        68.87349
585.24        68.87185
585.68        68.56656
586.11        68.81021
586.54         68.7954
586.98        68.15453
587.41        67.69076
587.85        68.15261
588.28        67.91268
588.71        67.75056
589.15        67.56041
589.58        67.92747
590.01        67.90665
590.45        67.68752
590.88        68.56696
591.31         68.4621
591.75        68.01185
592.18        67.45861
592.61        67.02824
593.05         68.1073
593.48        68.77116
593.91        68.74483
594.35         68.4229
594.78        67.70122
595.21        67.06009
595.65        67.41127
596.08        68.80003
596.51        68.43504
596.94        68.15284
597.38        67.76792
597.81        67.81857
598.24        68.56441
598.68        67.87532
599.11        67.69723
599.54        68.75911
599.97        68.16822
600.41        68.15615
600.84        67.55602
601.27        67.90934
601.70        67.97093
602.14        67.96956
602.57        67.80362
603.00        67.72038
603.43        67.05551
603.87        68.12342
604.30        68.35341
604.73        68.48206
605.16        67.62885
605.60        67.45813
606.03        67.13528
606.46        67.15554
606.89        67.02686
607.32        67.59195
607.76         67.3542
608.19        67.42168
608.62        67.48081
609.05         67.2151
609.48        67.17139
609.92        67.98036
610.35        67.73162
610.78        67.08907
611.21        66.94261
611.64        67.16118
612.07        67.46535
612.50        67.39684
612.94        67.38544
613.37        67.25059
613.80         67.5371
614.23        66.77231
614.66        66.78141
615.09        67.09959
615.52        67.26757
615.96        67.19827
616.39         67.2766
616.82         67.5573
617.25        67.05893
617.68        67.16721
618.11        67.16295
618.54        67.38966
618.97        67.34231
619.40         67.0409
619.84         67.0423
620.27        66.74552
620.70        66.91267
621.13        67.21618
621.56        66.52766
621.99        65.58941
622.42        65.37505
622.85        66.07468
623.28        66.25231
623.71        65.82148
624.14        66.60547
624.57        66.86235
625.00        66.85921
625.43        66.95647
625.86        66.72977
626.29        66.59127
626.72         66.0234
627.15        66.28561
627.58        66.39953
628.01        66.56637
628.44        66.45562
628.87        66.15681
629.30        65.71107
629.73         65.9711
630.16        65.99586
630.59        66.01349
631.02        66.14039
631.45        66.34911
631.88         66.5214
632.31        66.61749
632.74        66.65059
633.17         66.6095
633.60        66.50256
634.03        66.34474
634.46        66.12926
634.89        65.90382
635.32        65.76678
635.75        65.74357
636.18        65.74033
636.61        65.75304
637.04         65.8124
637.47        65.90421
637.89         66.0095
638.32          66.073
638.75        66.07056
639.18        65.99619
639.61        65.85877
640.04        65.70691
640.47        65.62065
640.90        65.62094
641.33        65.69089
641.76        65.79255
642.18        65.86766
642.61        65.87466
643.04        65.83541
643.47        65.78043
643.90        65.75906
644.33         65.7802
644.76        65.82887
645.18        65.86354
645.61         65.7989
646.04        65.63529
646.47        65.41528
646.90        65.21056
647.33        65.11725
647.75        65.12995
648.18        65.28233
648.61         65.5601
649.04        65.64727
649.47         65.4549
649.89        66.15382
650.32        65.94329
650.75        65.82236
651.18        65.42351
651.61         65.5052
652.03        66.01851
652.46        66.23114
652.89        66.08484
653.32        65.95121
653.74        65.96584
654.17        65.55711
654.60        65.85296
655.03         65.7505
655.46        64.80831
655.88        65.58728
656.31        68.52296
656.74        71.58534
657.16         71.2266
657.59        70.70887
658.02         67.6124
658.45        67.00375
658.87        66.22564
659.30        66.19366
659.73        65.80457
660.15        66.79244
660.58        65.65248
661.01        65.70641
661.44        65.93134
661.86        65.60859
662.29        64.81801
662.72        65.30474
663.14        65.70998
663.57        65.72228
664.00        65.09664
664.42        65.02319
664.85         65.5356
665.27        65.99174
665.70         66.2292
666.13        66.34501
666.55        66.30854
666.98        66.02056
667.41        65.57075
667.83         65.5409
668.26          65.297
668.69        65.35166
669.11        65.46616
669.54        65.57536
669.96        65.65822
670.39        65.73696
670.82        65.81793
671.24        65.89197
671.67        65.95708
672.09        65.94373
672.52        65.88862
672.94        65.93214
673.37        66.02908
673.80        65.89767
674.22        65.60301
674.65        65.45993
675.07        65.51437
675.50        65.58521
675.92        65.62257
676.35        65.60512
676.77        65.51958
677.20        65.37574
677.62        65.23404
678.05         65.1889
678.47        65.25642
678.90        65.41016
679.32        65.58812
679.75        65.69711
680.17        65.70438
680.60        65.66125
681.02        65.60669
681.45        65.53653
681.87        65.50215
682.30        65.61913
682.72        65.84314
683.15         65.8897
683.57        65.77834
684.00        65.74505
684.42        65.82127
684.85        65.89666
685.27        65.96565
685.70        66.10379
686.12        66.25495
686.54        66.31866
686.97        66.27645
687.39        66.15533
687.82        65.99305
688.24        65.92246
688.66        65.88657
689.09        65.91841
689.51        65.98602
689.94        66.02322
690.36        66.02367
690.78        65.98943
691.21        65.95881
691.63        65.98107
692.06        66.06718
692.48        66.20879
692.90        66.33197
693.33        66.32607
693.75        66.17085
694.17        65.87351
694.60        65.56754
695.02        65.47489
695.44        65.61158
695.87        65.92589
696.29        66.25732
696.71        66.18143
697.14        65.79759
697.56        65.60742
697.98        65.62798
698.41        66.04522
698.83        65.77968
699.25        66.00986
699.68        66.30613
700.10        66.40963
700.52          66.255
700.94        65.95457
701.37         65.6535
701.79        65.55982
702.21        65.71662
702.64        66.03216
703.06        66.39343
703.48        66.60128
703.90        66.59589
704.33        66.44419
704.75        66.20556
705.17        65.96593
705.59        65.77608
706.01        65.61479
706.44        65.51495
706.86        65.56506
707.28        65.75917
707.70        66.02767
708.12        66.31766
708.55        66.63229
708.97         66.8921
709.39        66.86951
709.81        66.62109
710.23        66.49505
710.66        66.53436
711.08        66.57254
711.50        66.56017
711.92        66.51175
712.34        66.42174
712.76         66.3093
713.19        66.18706
713.61         66.1089
714.03        66.08181
714.45        66.09344
714.87        66.15753
715.29          66.323
715.71          66.584
716.13        66.80104
716.56        67.09709
716.98        67.30037
717.40          67.406
717.82        67.42171
718.24        67.33118
718.66        67.10909
719.08        66.78631
719.50        66.41006
719.92        66.07467
720.34        65.91788
720.76        65.96838
721.19        66.16081
721.61        66.47959
722.03         66.8405
722.45        67.18509
722.87        67.51449
723.29        67.73598
723.71        67.70794
724.13        67.42381
724.55         66.9393
724.97        66.40705
725.39        66.08667
725.81         66.0509
726.23        66.20959
726.65        66.47501
727.07        66.84385
727.49        67.01769
727.91        67.22488
728.33        67.38872
728.75         67.5072
729.17        67.57697
729.59        67.58058
730.01        67.53578
730.43        67.48234
730.85        67.43281
731.27        67.38368
731.69        67.32986
732.10        67.25476
732.52        67.15672
732.94        67.06341
733.36        67.00407
733.78        66.88711
734.20        66.70292
734.62        66.72933
735.04        67.05074
735.46        66.50745
735.88        67.09412
736.30         67.3013
736.72         67.6553
737.13        67.90661
737.55         67.9709
737.97        68.03812
738.39        68.06406
738.81        67.78109
739.23        67.30953
739.65        67.21982
740.06        67.46836
740.48        67.57757
740.90         67.5032
741.32        67.55067
741.74        67.71326
742.16        67.81262
742.57        67.83379
742.99        67.80688
743.41        67.74707
743.83        67.66103
744.25        67.56129
744.67        67.44044
745.08        67.34763
745.50        67.33733
745.92        67.42451
746.34        67.58483
746.75        67.76077
747.17        67.83705
747.59        67.79383
748.01         67.6865
748.42        67.55537
748.84        67.43015
749.26        67.36002
749.68        67.38876
750.09         67.4884
750.51        67.61219
750.93        67.69247
751.35        67.60921
751.76        67.38305
752.18        67.20325
752.60        67.08453
753.01        66.93338
753.43        66.75568
753.85        66.64821
754.27        66.63309
754.68        66.70141
755.10        66.83301
755.52         66.9865
755.93        67.12898
756.35        67.25449
756.77        67.42834
757.18        67.56713
757.60        67.63883
758.02        68.02979
758.43        68.65317
758.85        67.74751
759.26         67.7448
759.68        67.31792
760.10        67.19118
760.51        67.37585
760.93        67.91838
761.34        67.16669
761.76         68.0014
762.18        67.96883
762.59        67.99348
763.01        68.12667
763.42        68.42698
763.84        68.55759
764.26        68.46467
764.67        68.42084
765.09        68.42573
765.50        68.00684
765.92        67.39077
766.33        67.35381
766.75        67.76949
767.16        67.88639
767.58        67.59615
768.00        67.31688
768.41        67.17577
768.83         67.3169
769.24         67.6601
769.66        67.74161
770.07        67.57267
770.49         67.5545
770.90        67.73995
771.32        68.06493
771.73        68.43012
772.15        68.56416
772.56         68.4546
772.97        68.19128
773.39        67.90607
773.80        67.84449
774.22        68.00418
774.63        68.25362
775.05        68.44023
775.46        68.50454
775.88        68.37685
776.29         68.0781
776.70        67.72871
777.12        67.57748
777.53        67.68969
777.95        67.94656
778.36        68.27043
778.77        68.49274
779.19        68.58002
779.60        68.60322
780.02        68.55679
780.43        68.53576
780.84        68.59016
781.26        68.33574
781.67        67.94703
782.09         68.5006
782.50        69.64669
782.91        69.49544
783.33          68.211
783.74        67.74339
784.15        68.20055
784.57        68.47005
784.98        68.49717
785.39         68.6704
785.81        68.96844
786.22        69.31863
786.63        69.63443
787.04        69.74886
787.46        69.65652
787.87        69.40743
788.28        69.13308
788.70        69.00288
789.11        69.03697
789.52        69.21816
789.93           69.45
790.35        69.56007
790.76        69.51102
791.17        69.33397
791.58        69.12569
792.00        68.98853
792.41        68.95422
792.82        69.10393
793.23        69.33317
793.65        69.10915
794.06        68.60663
794.47         68.7747
794.88        69.47533
795.29        69.71767
795.71        69.42097
796.12        69.22657
796.53        69.20774
796.94        69.06335
797.35        68.89333
797.76         69.1403
798.18        69.66424
798.59        69.90461
799.00        69.77338
799.41        69.55402
799.82        69.35614
800.23        69.25191
800.64        69.28214
801.06        69.38616
801.47        69.53468
801.88        69.59216
802.29        69.51624
802.70        69.34003
803.11          69.118
803.52        68.93818
803.93        68.86037
804.34        68.88239
804.75        68.96828
805.17        69.16936
805.58         69.5279
805.99        69.61776
806.40        69.54868
806.81        70.44035
807.22        71.85292
807.63        71.60374
808.04        69.94934
808.45         69.2018
808.86        69.54259
809.27        69.71052
809.68        69.56618
810.09        69.49012
810.50        69.45869
810.91        69.37616
811.32        69.34023
811.73        69.49925
812.14        69.86523
812.55        70.39401
812.96         70.9156
813.37        71.10594
813.78          70.883
814.19        70.37345
814.60        69.76073
815.01        69.28886
815.42        69.02283
815.83        68.89613
816.24        68.88873
816.65        68.95692
817.05        69.07876
817.46        69.25275
817.87        69.44664
818.28        69.55381
818.69        69.55443
819.10        69.44499
819.51        69.32462
819.92        69.38736
820.33        69.66592
820.74        70.09068
821.14        70.50317
821.55        70.64303
821.96        70.45895
822.37        70.04406
822.78        69.54266
823.19        69.19992
823.60        69.10179
824.00        69.19993
824.41        69.39651
824.82        69.62602
825.23        69.83205
825.64        70.04137
826.04        70.21237
826.45        70.23264
826.86        70.10711
827.27        69.86604
827.68          69.589
828.08        69.45163
828.49           69.45
828.90        69.54821
829.31        69.73297
829.72        69.97646
830.12        70.26904
830.53        70.56489
830.94        70.75249
831.35         70.5973
831.75        70.09077
832.16        69.29586
832.57        68.47581
832.97          68.028
833.38        68.04781
833.79        68.39952
834.20        68.92364
834.60        69.35355
835.01        69.60301
835.42        69.79655
835.82        69.92126
836.23        69.87902
836.64        69.70801
837.04        69.37522
837.45        69.12376
837.86        69.42603
838.26        70.36727
838.67        71.77416
839.08        73.14381
839.48         73.5282
839.89        72.70213
840.29        71.01582
840.70        69.20885
841.11        68.15284
841.51        68.07105
841.92        68.69843
842.33        69.72095
842.73        70.56562
843.14        70.90703
843.54        70.96365
843.95        70.90464
844.35        71.05443
844.76        71.46663
845.17        71.99035
845.57        72.44672
845.98        72.54847
846.38         72.2549
846.79        71.67603
847.19        71.00282
847.60        70.50302
848.00        70.27515
848.41        70.22302
848.81        70.28941
849.22        70.28766
849.62         70.2055
850.03         70.1011
850.43        70.01289
850.84        69.92287
851.24        69.88572
851.65        69.82025
852.05        69.87397
852.46        70.19411
852.86        70.77197
853.27        71.52354
853.67        72.16357
854.07        72.42406
854.48        72.24403
854.88        71.74236
855.29        71.05772
855.69        70.59014
856.10        70.40822
856.50        70.48347
856.90        70.69131
857.31        70.83562
857.71        70.89236
858.12        70.85236
858.52        70.76493
858.92        70.59042
859.33        70.31656
859.73        69.99027
860.13        69.59405
860.54         69.1364
860.94        68.69083
861.34        68.27077
861.75         67.9554
862.15        67.90067
862.55        68.10719
862.96        68.48758
863.36        68.97713
863.76        69.37376
864.17        69.58574
864.57        69.68021
864.97         69.6098
865.38        69.32855
865.78        68.88581
866.18        68.28751
866.58        67.71198
866.99        67.47727
867.39        67.68382
867.79         68.2408
868.19        68.92763
868.60        69.36822
869.00        69.49371
869.40        69.37103
869.80        69.13996
870.21        69.07481
870.61        69.31396
871.01         69.6978
871.41        70.03481
871.81        70.07099
872.22        69.75143
872.62        69.15437
873.02        68.47869
873.42        68.04914
873.82        67.96649
874.22        68.15298
874.63        68.38613
875.03         68.3298
875.43        67.90014
875.83        67.21033
876.23        66.52804
876.63        66.25636
877.03        66.48167
877.44        67.05842
877.84        67.71733
878.24        68.01278
878.64        67.78923
879.04        67.06543
879.44         66.2293
879.84        65.97089
880.24        66.38474
880.64        67.20996
881.04        68.03049
881.44        68.18938
881.84        67.54208
882.24        66.34711
882.65        65.04066
883.05        64.28286
883.45        64.26286
883.85        64.78347
884.25        65.60229
884.65        66.30235
885.05        66.71301
885.45         66.9409
885.85        67.05428
886.25        67.15879
886.65        67.29012
887.05        67.38572
887.45        67.40453
887.85        67.30941
888.25        67.10466
888.65        66.83711
889.04        66.57642
889.44        66.44034
889.84        66.44228
890.24        66.54888
890.64        66.70399
891.04        66.81448
891.44        66.84454
891.84         66.8186
892.24        66.75278
892.64        66.66592
893.04        66.58476
893.44        66.53178
893.83        66.53474
894.23        66.58657
894.63        66.70871
895.03        66.86823
895.43        67.12112
895.83        67.56201
896.23        68.15542
896.63        68.82621
897.02        69.33944
897.42        69.35508
897.82        68.82898
898.22        67.93079
898.62        66.90352
899.01        66.10229
899.41        65.65864
899.81        65.46018
900.21        65.50346
900.61        65.76859
901.00        66.19676
901.40        66.78816
901.80        67.35069
902.20        67.56107
902.59        67.37698
902.99         66.8802
903.39        66.30034
903.79         66.0377
904.18        66.17523
904.58        66.55894
904.98        67.07585
905.38        67.56207
905.77        67.94283
906.17        68.30595
906.57        68.48602
906.96        68.20674
907.36         67.4553
907.76        66.34373
908.15        65.31267
908.55        65.04276
908.95         65.6806
909.34        67.03754
909.74         68.6014
910.14        69.58476
910.53        69.71048
910.93          69.206
911.33        68.35441
911.72         67.6012
912.12        67.16535
912.52        66.92352
912.91        66.77927
913.31        66.61125
913.70        66.39947
914.10        66.19682
914.49        66.18122
914.89        66.53604
915.29        67.28905
915.68        68.32954
916.08        69.32328
916.47        69.80163
916.87        69.65091
917.26           68.99
917.66        68.14418
918.05        67.46722
918.45        67.08411
918.84        66.95718
919.24        66.94893
919.64        66.95562
920.03         66.9551
920.42         66.9608
920.82        67.10207
921.21        67.51109
921.61        68.16936
922.00        69.03629
922.40        69.83455
922.79        70.23935
923.19        70.12907
923.58        69.63417
923.98        69.00496
924.37        68.55283
924.77        68.38323
925.16        68.36823
925.55        68.45476
925.95        68.52299
926.34         68.5344
926.74        68.52644
927.13        68.41824
927.52        67.99892
927.92        67.32569
928.31        66.48036
928.70         65.7195
929.10        65.41051
929.49        65.61237
929.89        66.14301
930.28        66.94922
930.67        67.81162
931.07        68.56178
931.46        69.30477
931.85        69.73958
932.24        69.44711
932.64        68.46317
933.03        66.92396
933.42        65.42825
933.82         64.8476
934.21        65.35786
934.60        66.76475
934.99        68.54051
935.39        69.69583
935.78        69.94493
936.17        69.45607
936.56        68.63939
936.96        68.15816
937.35        68.18565
937.74        68.49577
938.13        68.75705
938.53        68.49513
938.92        67.64516
939.31        66.47223
939.70        65.31034
940.09        64.59203
940.49        64.39175
940.88        64.58071
941.27        65.05682
941.66        65.61648
942.05        66.15137
942.44        66.74709
942.84        67.27337
943.23        67.51384
943.62        67.45849
944.01        67.09827
944.40        66.75277
944.79        66.99361
945.18        67.89638
945.57        69.26279
945.97        70.54209
946.36        70.88602
946.75        70.06333
947.14        68.46378
947.53        66.59229
947.92        65.15196
948.31        64.36054
948.70        64.01508
949.09        64.09238
949.48        64.54564
949.87         65.2786
950.26        66.30568
950.65        67.35314
951.04        67.94402
951.43        67.94986
951.82        67.44553
952.21        66.68829
952.60        66.15262
952.99        65.99554
953.38         66.1152
953.77        66.37418
954.16        66.54678
954.55        66.55268
954.94        66.43962
955.33         66.3184
955.72         66.3608
956.11        66.59459
956.50        66.96558
956.89        67.20961
957.28        66.90689
957.66         66.0071
958.05         64.7343
958.44        63.51863
958.83        62.96628
959.22        63.17828
959.61        63.95874
960.00        64.96741
960.39        65.56397
960.78        65.51266
961.16        64.99721
961.55        64.26957
961.94        63.61467
962.33        63.15762
962.72        62.85202
963.11        62.68951
963.49        62.71467
963.88        62.85263
964.27        63.06508
964.66        63.47601
965.04        64.30359
965.43        65.48994
965.82        67.02583
966.21         68.3118
966.60        68.23228
966.98        66.58309
967.37         63.8936
967.76        61.24076
968.15        59.97485
968.53        60.33252
968.92        61.99067
969.31        64.25368
969.69        65.67231
970.08        65.62958
970.47        64.55739
970.86        63.25786
971.24        62.88314
971.63        63.68798
972.02        65.33247
972.40        67.15852
972.79        67.65675
973.17        66.49455
973.56        64.28002
973.95        61.97701
974.33        60.78737
974.72        60.94896
975.11        62.06692
975.49        63.66335
975.88        64.74323
976.26        64.95818
976.65         64.5648
977.04        63.83889
977.42        63.16851
977.81        62.68412
978.19        62.24416
978.58        61.98116
978.96        62.09698
979.35        62.58313
979.74        63.43474
980.12        64.49533
980.51        65.19997
980.89        65.49655
981.28        65.47804
981.66        65.33458
982.05        65.35052
982.43        65.62032
982.82        66.00663
983.20        66.61439
983.59        67.51852
983.97        68.74217
984.35        70.22342
984.74        71.45846
985.12        71.84449
985.51        71.19844
985.89        69.75775
986.28         68.1595
986.66        67.28362
987.04         67.4099
987.43        68.27333
987.81        69.49838
988.20        70.20415
988.58        70.09838
988.96        69.35926
989.35        68.33809
989.73        67.51572
990.12        67.01334
990.50        66.74149
990.88        66.41055
991.27        65.59695
991.65        64.28453
992.03        62.68129
992.42         61.3771
992.80        61.11014
993.18        62.01405
993.56        63.92881
993.95        66.07389
994.33        67.13045
994.71        66.57229
995.10         64.8734
995.48        62.97992
995.86        62.39536
996.24         63.4614
996.63        65.65153
997.01           68.38
997.39        70.04922
997.77        69.99942
998.15        68.82363
998.54        67.02264
998.92        65.19524
999.30        63.69777
999.68         62.3385
1000.06         61.4657
1000.45        61.55272
1000.83        62.70809
1001.21        64.93514
1001.59        67.62556
1001.97        69.18597
1002.35        69.04785
1002.73        67.70192
1003.12        66.09597
1003.50        65.39357
1003.88        65.96682
1004.26        67.31223
1004.64        69.28265
1005.02        71.45219
1005.40        73.38668
1005.78        75.29752
1006.16        76.31616
1006.54        75.10289
1006.92         71.7562
1007.30        66.85251
1007.69         62.2175
1008.07        60.28818
1008.45        61.75069
1008.83        66.16364
1009.21        72.13749
1009.59        76.08093
1009.97        76.21667
1010.35        73.45008
1010.73        69.34029
1011.11        66.20988
1011.49        64.72066
1011.86        64.16096
1012.24        64.04395
1012.62        63.69277
1013.00        62.92168
1013.38        62.02283
1013.76        61.31711
1014.14        61.40411
1014.52         62.4565
1014.90        64.05782
1015.28        65.69756
1015.66        66.81783
1016.04        67.29117
1016.41        67.32819
1016.79        66.83559
1017.17        65.78657
1017.55        64.31762
1017.93        62.45572
1018.31         60.7855
1018.69         60.0802
1019.06        60.47898
1019.44        62.00087
1019.82        63.83656
1020.20        64.09496
1020.58        62.21947
1020.95        58.82331
1021.33        55.67902
1021.71        54.73372
1022.09        56.27353
1022.46        60.11581
1022.84         64.8743
1023.22         66.9742
1023.60        65.05106
1023.97        60.19173
1024.35        55.53949
1024.73        54.77574
