SpectraSmart Spectrum 2.9.0.0
--------- Device Information -----------
Spectrum Name :  反射率_0
Saving Time :  2024/04/27 00:05:17
Spectro-Module Model Name : SE2030-DUVN
Spectro-Module Serial Number : OS361AC55029948
Wavelength Start : 200
Wavelength End : 1025
Wavelength Unit : Wavelength(nm)
Spectrum Unit : Reflectance(%)
-----------Spectrum Setting ------------
Integration Time : 20ms
Average : 10
Boxcar : 0
Background removal :  enabled
linearity correction :  enabled
SC :  disabled
Intensity correction :  disabled
DWT denoise :  enabled
savitzky-golay :  disabled
FFT :  disabled
Running average :  disabled
Kalman :  disabled
High pass :  disabled
---------------BEGIN--------------------
Wavelength(nm)             Reflectance(%)
200.29               0
200.75        53.97386
201.21        48.87165
201.67        43.72547
202.13        39.82164
202.58        37.07546
203.04        35.19305
203.50        34.69291
203.96        36.97204
204.42        42.67645
204.88        51.37004
205.34        61.15484
205.80        68.50387
206.26        71.66306
206.72        70.87138
207.18        67.63699
207.64        63.18301
208.10        57.50546
208.55        50.08615
209.01        40.12156
209.47        32.65913
209.93        32.43836
210.39         36.7163
210.85        42.48391
211.31        49.50865
211.77        60.29178
212.23        82.20773
212.69        133.8008
213.14        214.3484
213.60        201.0783
214.06        135.8213
214.52        94.29703
214.98        76.83678
215.44        70.41646
215.90        67.77786
216.36        67.47684
216.81        68.20589
217.27        69.71297
217.73        74.40963
218.19        79.91035
218.65        76.32667
219.11        64.27366
219.57        51.44216
220.02        44.80193
220.48        48.02299
220.94        60.68209
221.40        84.57973
221.86        119.1414
222.32          142.05
222.77        133.6361
223.23        108.7293
223.69        83.44036
224.15         66.7425
224.61        57.52676
225.06        51.87711
225.52        49.20752
225.98        48.98139
226.44        50.51529
226.90        53.77249
227.36        57.39138
227.81        58.81649
228.27         57.7104
228.73         54.8434
229.19         51.8006
229.65        50.47226
230.10        50.97039
230.56        52.66573
231.02        54.51643
231.48        54.90657
231.93        53.59518
232.39        51.63872
232.85        49.90753
233.31        49.54018
233.77        50.66063
234.22        52.80002
234.68        55.52184
235.14        58.30807
235.60        60.93953
236.05        63.70649
236.51        66.31313
236.97        68.12463
237.43        68.91324
237.88        68.71193
238.34        68.22921
238.80        69.18034
239.26        72.32552
239.71        78.23735
240.17         86.2911
240.63        94.21597
241.08        100.2499
241.54        103.5366
242.00        105.8201
242.46        111.7271
242.91        125.1403
243.37        147.8132
243.83        180.7446
244.28        210.2585
244.74        213.9594
245.20        190.7352
245.66        160.0427
246.11        139.6681
246.57        130.6822
247.03        128.1784
247.48        126.3243
247.94        117.5194
248.40        104.3936
248.85        92.17171
249.31         84.0566
249.77         80.7475
250.22        81.20789
250.68        84.49116
251.14        89.79102
251.59        93.66708
252.05        94.10294
252.51        93.03178
252.96        90.79903
253.42         88.4677
253.88        86.34509
254.33        83.66744
254.79        83.04577
255.25        86.44983
255.70        93.18611
256.16        102.3805
256.62        109.7102
257.07        108.8177
257.53        102.0148
257.99        93.53834
258.44        86.71159
258.90        84.56522
259.35        85.57582
259.81        88.50558
260.27        91.44398
260.72        92.14942
261.18        90.84425
261.63         88.1603
262.09        85.59728
262.55        83.97353
263.00        83.13033
263.46        82.84795
263.91        82.24821
264.37        80.74384
264.83        78.32601
265.28        75.39812
265.74        72.77515
266.19        71.00659
266.65        70.22973
267.11        70.01938
267.56         70.0316
268.02        69.75957
268.47         69.0191
268.93        68.03667
269.38        66.76185
269.84        65.20123
270.30        63.40371
270.75        61.35091
271.21         59.4073
271.66        58.05014
272.12        57.35151
272.57        57.14006
273.03        56.99172
273.48         56.1881
273.94        54.67624
274.39        52.68591
274.85        50.72194
275.31        49.29184
275.76        48.45957
276.22        48.07341
276.67         47.8433
277.13        47.50342
277.58        46.89985
278.04         46.1639
278.49        45.32872
278.95        44.59072
279.40         43.9185
279.86        43.33241
280.31        42.67353
280.77        41.87537
281.22        40.89728
281.68        39.89228
282.13        38.96088
282.59        38.34655
283.04        38.03287
283.50        37.97441
283.95        38.02994
284.41        38.00202
284.86        37.82804
285.32        37.59437
285.77        37.36752
286.22        37.32765
286.68        37.49283
287.13        37.74002
287.59        37.98678
288.04        38.05338
288.50        37.93374
288.95        37.66309
289.41        37.33023
289.86         36.9708
290.32        36.67116
290.77        36.41703
291.22        36.27868
291.68        36.33336
292.13        36.59111
292.59        37.07702
293.04        37.76124
293.50        38.60847
293.95        39.58613
294.40        40.69217
294.86        41.93184
295.31        43.30725
295.77        44.80653
296.22        46.37785
296.68        47.98134
297.13        49.54185
297.58        51.05901
298.04        52.57003
298.49         54.0885
298.95        55.66303
299.40        57.29392
299.85        58.96388
300.31        60.71289
300.76        62.57021
301.21        64.53277
301.67        66.60035
302.12        68.62814
302.58        70.49829
303.03        72.14079
303.48        73.63393
303.94        75.12099
304.39        76.74103
304.84        78.55178
305.30        80.49834
305.75        82.44292
306.20        84.27712
306.66        85.97987
307.11        87.55834
307.57        89.03824
308.02        90.33154
308.47        91.48141
308.93        92.51608
309.38        93.53207
309.83        94.80849
310.29         96.3821
310.74        98.15694
311.19        99.89812
311.65         101.188
312.10        101.9071
312.55        102.1802
313.00        102.2708
313.46         102.593
313.91        103.2284
314.36        104.0874
314.82        104.9889
315.27        105.6572
315.72        105.9997
316.18         106.147
316.63        106.2107
317.08        106.4069
317.53         106.796
317.99        107.2905
318.44        107.8242
318.89        108.2647
319.35        108.5639
319.80        108.7694
320.25         108.919
320.70        109.0735
321.16        109.2534
321.61        109.4803
322.06        109.7197
322.51        109.9307
322.97        110.0878
323.42        110.2016
323.87        110.3588
324.32        110.7223
324.78        111.2719
325.23        112.0396
325.68        112.7377
326.13        112.9065
326.59        112.4628
327.04        111.5843
327.49        110.6754
327.94        110.4059
328.39        110.9321
328.85         112.029
329.30        113.4301
329.75        114.3762
330.20        114.6122
330.66          114.31
331.11        113.8235
331.56        113.6495
332.01        113.9483
332.46        114.5429
332.92        115.1759
333.37         115.596
333.82        115.6489
334.27        115.4903
334.72        115.2761
335.17         115.228
335.63        115.4205
336.08        115.8428
336.53        116.4443
336.98        117.1942
337.43         118.047
337.88        118.9708
338.34         119.893
338.79        120.8213
339.24        121.6517
339.69        122.3593
340.14        122.8167
340.59        122.8506
341.05        122.5044
341.50        121.8746
341.95        121.2291
342.40        120.9654
342.85        121.1857
343.30        121.7738
343.75        122.5904
344.20        123.3841
344.66        124.0421
345.11        124.6176
345.56        125.0414
346.01        125.2171
346.46         125.167
346.91        124.9287
347.36        124.6585
347.81        124.6255
348.26        124.8776
348.72        125.3159
349.17        125.8347
349.62        126.2966
350.07        126.6288
350.52        126.8863
350.97        126.9369
351.42        126.5766
351.87        125.8204
352.32        124.7492
352.77        123.6934
353.22        123.1357
353.67        123.1566
354.13        123.6153
354.58         124.191
355.03        124.2965
355.48        123.7776
355.93        122.7995
356.38        121.6795
356.83        120.9506
357.28        120.7191
357.73        120.6978
358.18        120.5715
358.63        120.3897
359.08         119.199
359.53        117.8638
359.98        116.3859
360.43        115.1378
360.88         114.202
361.33          113.48
361.78        112.8339
362.23        112.0333
362.68        111.0349
363.13        109.9338
363.58         108.848
364.03        107.9407
364.48        107.2358
364.93        106.6504
365.38        106.0906
365.83        105.4249
366.28        104.6156
366.73        103.7144
367.18         102.754
367.63        101.7766
368.08        100.8103
368.53        99.85316
368.98        98.93503
369.43        98.10029
369.88        97.35812
370.33        96.70135
370.78         96.1076
371.23        95.53893
371.68        94.97613
372.13        94.41336
372.58        93.84755
373.03        93.27692
373.48        92.68958
373.93        92.07245
374.38        91.39868
374.83        90.64025
375.28        89.80245
375.72        88.88698
376.17         87.9959
376.62        87.16778
377.07        86.43233
377.52        85.80987
377.97         85.2659
378.42        84.75331
378.87        84.26321
379.32        83.77234
379.77        83.38493
380.22        83.25538
380.67        83.36515
381.11          83.676
381.56        83.85075
382.01        83.42688
382.46        82.36218
382.91        80.88866
383.36        79.42192
383.81        78.52265
384.26        78.28716
384.71        78.52652
385.15        79.01521
385.60        79.35088
386.05        79.38294
386.50        79.21091
386.95        78.86368
387.40        78.39585
387.85         77.8576
388.29        77.18769
388.74        76.54438
389.19        75.95644
389.64        75.43723
390.09        74.98312
390.54        74.59087
390.98        74.23006
391.43        73.93504
391.88        73.70089
392.33        73.51537
392.78        73.33874
393.23        73.15532
393.67        72.98118
394.12        72.86852
394.57        72.64198
395.02        72.34734
395.47        72.22625
395.91        72.24833
396.36        72.10522
396.81        71.80099
397.26         71.5127
397.71        71.24406
398.15        70.91396
398.60        70.61667
399.05        70.27106
399.50        69.93552
399.95        69.84552
400.39        69.96597
400.84        69.84035
401.29        69.47057
401.74        69.36607
402.18        69.42904
402.63        68.91247
403.08        68.01686
403.53        67.61121
403.97         67.7569
404.42        68.04099
404.87        68.26339
405.32        68.24738
405.76        67.92637
406.21        67.41678
406.66        66.87067
407.11        66.53941
407.55        66.53104
408.00        66.67696
408.45        66.89678
408.90        67.27385
409.34        67.56538
409.79        67.13968
410.24        66.22942
410.68        65.75782
411.13         65.8131
411.58        65.90792
412.03        65.92937
412.47        65.90765
412.92        65.78292
413.37        65.58567
413.81        65.38065
414.26        65.32019
414.71         65.4019
415.15        65.60275
415.60         65.8203
416.05        65.95243
416.49        65.96696
416.94        65.89159
417.39        65.77676
417.83        65.68243
418.28        65.63852
418.73        65.62978
419.17        65.65399
419.62        65.70932
420.07        65.77296
420.51        65.81705
420.96         65.8619
421.41        65.83456
421.85        65.69505
422.30        65.67367
422.74        65.66032
423.19        65.24247
423.64        64.55536
424.08        64.46519
424.53        64.92087
424.98        65.05974
425.42        64.81754
425.87         65.0385
426.31        65.05341
426.76        65.09889
427.21        65.00102
427.65        64.94627
428.10        64.92628
428.54        64.94627
428.99        65.04376
429.44        64.97201
429.88        64.84731
430.33        65.24892
430.77        65.91089
431.22        66.19279
431.66        65.99675
432.11        65.43848
432.56        64.79182
433.00        64.71013
433.45        65.31139
433.89        66.17264
434.34        66.56051
434.78        67.54955
435.23         65.5347
435.67        64.64365
436.12        64.46611
436.57        64.72396
437.01        65.31059
437.46        65.52839
437.90        65.35085
438.35        65.15505
438.79        65.25762
439.24        65.32224
439.68        65.39298
440.13        65.60784
440.57          65.957
441.02        65.98452
441.46        65.76643
441.91        66.33486
442.35        67.27544
442.80        67.05075
443.24        65.90125
443.69        65.76418
444.13        66.58987
444.58        66.89157
445.02        66.63273
445.47        66.66568
445.91        66.98889
446.36        67.23238
446.80        67.36423
447.24        67.47728
447.69        67.57718
448.13        67.65596
448.58        67.72736
449.02        67.75528
449.47        67.74563
449.91        67.68457
450.36        67.59788
450.80         67.4802
451.25        67.36961
451.69        67.26762
452.13        67.19521
452.58        67.14109
453.02        67.11379
453.47          67.133
453.91        67.18743
454.36        67.27725
454.80        67.33492
455.24        67.22694
455.69        66.94902
456.13        66.58799
456.58        66.28339
457.02        65.92814
457.46        65.68342
457.91        65.99693
458.35        66.56979
458.79        66.56248
459.24        65.97787
459.68        65.11646
460.13        64.30743
460.57        64.02094
461.01        64.42263
461.46        64.42061
461.90        65.36404
462.34        65.90746
462.79        65.61988
463.23        65.64997
463.68        65.71737
464.12        65.55644
464.56        65.09136
465.01        64.39248
465.45        63.61325
465.89        63.16376
466.34        63.05371
466.78        63.33097
467.22        63.69185
467.67         63.4965
468.11        63.17993
468.55        63.29172
468.99        63.84537
469.44        63.94121
469.88        63.55119
470.32        63.16444
470.77        62.89289
471.21        62.71182
471.65        62.64855
472.10        62.71038
472.54        62.82693
472.98        62.86229
473.42        62.77592
473.87        62.72546
474.31         62.6609
474.75         62.3237
475.20         61.8433
475.64        61.76679
476.08        62.09577
476.52         62.0977
476.97        61.69066
477.41        61.98606
477.85        62.19015
478.29        61.49558
478.74        61.89369
479.18        61.85441
479.62        61.88693
480.06        61.87391
480.50        61.77262
480.95         61.8462
481.39        62.07985
481.83        61.60628
482.27        61.93887
482.72         61.8395
483.16        61.80441
483.60        61.79029
484.04        61.80856
484.48        61.97342
484.93         62.1296
485.37        61.80466
485.81        61.48729
486.25        61.06413
486.69        61.91636
487.14         62.6545
487.58        61.12428
488.02         61.8938
488.46         60.8521
488.90        61.04488
489.34         62.1125
489.79        62.66591
490.23        61.88168
490.67        61.31959
491.11        60.94832
491.55        60.87989
491.99        61.04432
492.43        60.98617
492.88        60.70194
493.32        60.59421
493.76        60.68499
494.20        60.75322
494.64        60.77928
495.08        60.85673
495.52        60.94803
495.96        60.92745
496.41        60.82015
496.85        60.79804
497.29        60.77689
497.73        60.89844
498.17        60.41445
498.61        60.37554
499.05        60.53899
499.49        60.70762
499.93        60.63105
500.37        60.71309
500.82        60.84943
501.26        60.79078
501.70        60.58141
502.14        60.53143
502.58        60.65407
503.02        60.71789
503.46        60.71683
503.90        60.80288
504.34        60.92459
504.78        60.90482
505.22        60.70673
505.66        60.45071
506.10        60.25311
506.54        60.04496
506.98        59.80645
507.42        60.40987
507.86        60.38017
508.30        60.30334
508.74        60.46264
509.18         60.3339
509.62        60.18143
510.06        60.08604
510.50           60.09
510.94        60.13765
511.38        60.19097
511.82        60.21044
512.26        60.18263
512.70        60.13066
513.14        60.06969
513.58        60.03668
514.02        60.04616
514.46        60.05217
514.90        60.05092
515.34        60.21078
515.78        60.25964
516.22        60.38461
516.66        60.47779
517.10        60.53176
517.54         60.5216
517.98        60.39757
518.42        60.20267
518.86        60.06575
519.30        60.01072
519.74         59.9805
520.18        59.98594
520.62         60.0435
521.06        60.15494
521.50        60.35556
521.93        60.57106
522.37        60.62456
522.81        60.49865
523.25        60.24968
523.69        59.99496
524.13        59.90988
524.57        60.02782
525.01        60.29126
525.45        60.57618
525.89        60.67972
526.32        60.54836
526.76        60.26806
527.20        59.94058
527.64        59.72929
528.08        59.67839
528.52        59.73051
528.96        59.83453
529.40        59.91313
529.83        59.93723
530.27        59.94407
530.71        59.93103
531.15        59.89633
531.59        59.84761
532.03        59.77654
532.46        59.70053
532.90        59.69439
533.34        59.75469
533.78        59.82592
534.22        59.87152
534.66        59.90708
535.09        59.87844
535.53        59.67033
535.97        59.33785
536.41        59.12367
536.85        59.06087
537.28        59.02978
537.72        59.03993
538.16        59.14956
538.60        59.34305
539.04        59.59802
539.47        59.82667
539.91        59.93277
540.35        59.88454
540.79        59.71434
541.22        59.49689
541.66        59.37632
542.10        59.38058
542.54        59.46762
542.97        59.57103
543.41        59.61404
543.85        59.56549
544.29        59.46384
544.72        59.33191
545.16        59.23721
545.60        59.19025
546.04        59.17962
546.47        59.20237
546.91        59.27329
547.35        59.38532
547.79         59.4663
548.22        59.51123
548.66        59.65726
549.10        59.88337
549.53        59.80157
549.97        59.48201
550.41        59.23238
550.84        59.15294
551.28        59.19113
551.72        59.27166
552.15        59.37849
552.59        59.55481
553.03        59.09058
553.46         59.4943
553.90        59.45714
554.34        59.41811
554.77        59.38323
555.21        59.37735
555.65        59.39914
556.08        59.42825
556.52        59.42857
556.96        59.39399
557.39        59.46966
557.83        59.60784
558.27        59.47591
558.70        59.12016
559.14        58.96782
559.57         59.0098
560.01        58.95446
560.45        58.82652
560.88        58.88453
561.32        59.11168
561.75        59.25022
562.19        59.28717
562.63        59.25904
563.06        59.19454
563.50        59.20324
563.93        59.22712
564.37        59.23233
564.80        59.23124
565.24        59.10527
565.68         58.7614
566.11        59.34902
566.55        58.74529
566.98        58.64131
567.42        58.52422
567.85        58.64554
568.29        58.96116
568.72        59.21697
569.16        59.47849
569.60        59.51948
570.03         59.4946
570.47        59.68338
570.90        60.25046
571.34        58.97388
571.77        59.62667
572.21        59.98485
572.64        59.51284
573.08        59.78032
573.51        59.22047
573.95        59.30838
574.38        59.74823
574.82         59.7571
575.25         59.4281
575.69        59.28926
576.12        59.45605
576.56        58.95505
576.99        59.00967
577.42        59.30477
577.86        59.18724
578.29        60.04918
578.73        60.02635
579.16        59.89271
579.60        59.22861
580.03        59.25521
580.47         59.2287
580.90        59.96585
581.33        59.88638
581.77        60.22195
582.20        59.86475
582.64        59.84651
583.07        59.49134
583.51        59.20056
583.94        59.08819
584.37        59.25328
584.81        59.64531
585.24        59.83761
585.68        59.79244
586.11        59.49106
586.54        59.51897
586.98        58.98305
587.41        58.74329
587.85        59.31377
588.28        59.13034
588.71        58.82025
589.15        58.80416
589.58        58.93414
590.01        58.61278
590.45        58.51191
590.88        59.52208
591.31        59.52934
591.75        58.97226
592.18        58.60767
592.61        58.62856
593.05        58.96112
593.48        59.65221
593.91        59.37245
594.35        59.33105
594.78         58.6448
595.21        58.33259
595.65        58.54903
596.08        59.47865
596.51        59.55155
596.94        58.95208
597.38        58.76866
597.81        59.09445
598.24        59.19086
598.68        59.10402
599.11        58.88823
599.54        59.74837
599.97        59.45435
600.41        59.24146
600.84        58.77606
601.27        59.20829
601.70         58.8399
602.14        58.99831
602.57        58.73091
603.00         58.6031
603.43        58.03199
603.87        59.11332
604.30        59.24557
604.73        59.11522
605.16        58.59171
605.60        58.76515
606.03        58.51138
606.46        58.14444
606.89        58.38861
607.32        58.56124
607.76        58.57979
608.19        58.66394
608.62        58.59101
609.05        58.57225
609.48        58.54975
609.92        59.28352
610.35         58.9345
610.78        58.35493
611.21        58.33463
611.64        58.39042
612.07         58.6684
612.50        58.64992
612.94        58.64141
613.37        58.45735
613.80        58.91562
614.23        58.15627
614.66        58.18882
615.09         58.4381
615.52        58.57419
615.96         58.5136
616.39        58.51254
616.82        58.61314
617.25        58.18796
617.68        58.11705
618.11        58.11733
618.54        58.39737
618.97        58.53554
619.40        58.47308
619.84        58.60049
620.27        58.38707
620.70         58.4093
621.13        58.45484
621.56        58.14631
621.99        57.57614
622.42         57.4174
622.85         57.6871
623.28        57.66138
623.71        57.52742
624.14        57.70781
624.57        57.90871
625.00        57.87854
625.43        57.87605
625.86        57.73688
626.29        57.63865
626.72        57.38636
627.15        57.52903
627.58        57.58951
628.01        57.64758
628.44        57.70116
628.87        57.75918
629.30        57.38731
629.73        57.42514
630.16        57.39232
630.59        57.52406
631.02        57.68264
631.45        57.83256
631.88        57.96759
632.31        58.05319
632.74        58.07509
633.17        58.02232
633.60        57.90126
634.03        57.72688
634.46         57.5008
634.89        57.27278
635.32        57.13804
635.75        57.12018
636.18        57.13241
636.61        57.16727
637.04        57.24353
637.47        57.34575
637.89        57.46264
638.32        57.53381
638.75        57.51909
639.18         57.4118
639.61        57.22164
640.04        57.02531
640.47        56.94705
640.90        57.01325
641.33        57.19552
641.76        57.40664
642.18        57.50459
642.61        57.43417
643.04        57.24309
643.47        57.02519
643.90        56.93164
644.33        56.99677
644.76        57.17447
645.18        57.36849
645.61        57.40813
646.04        57.26485
646.47        57.00136
646.90        56.72259
647.33        56.59126
647.75        56.62601
648.18        56.81359
648.61        57.09597
649.04        57.23705
649.47        56.99442
649.89        57.49744
650.32        57.18353
650.75         57.0821
651.18        56.85049
651.61        56.95272
652.03        57.33382
652.46        57.50036
652.89        57.43335
653.32        57.36617
653.74        57.35683
654.17        57.24749
654.60        57.41225
655.03        57.21383
655.46        56.70912
655.88        56.97696
656.31         59.1043
656.74        60.08146
657.16        59.55711
657.59        59.19751
658.02        57.55324
658.45        57.78761
658.87        57.60391
659.30        56.93593
659.73         57.0043
660.15        57.98812
660.58         56.9486
661.01        56.82868
661.44        56.71447
661.86        56.64199
662.29        56.52026
662.72        56.95589
663.14         56.8173
663.57        56.73185
664.00        56.48493
664.42        56.46912
664.85        56.70669
665.27        56.98086
665.70        57.17962
666.13         57.2765
666.55        57.24842
666.98        57.04147
667.41        56.70713
667.83        56.70575
668.26        56.48062
668.69        56.47922
669.11        56.52344
669.54        56.60971
669.96        56.72687
670.39        56.87467
670.82        57.02565
671.24        57.10475
671.67        57.09576
672.09        57.00731
672.52        56.89522
672.94        56.81237
673.37        56.78186
673.80        56.78087
674.22        56.80568
674.65        56.81721
675.07        56.81963
675.50        56.81575
675.92        56.80122
676.35        56.75579
676.77        56.68129
677.20        56.57883
677.62        56.47958
678.05        56.43453
678.47        56.45117
678.90         56.5201
679.32        56.59802
679.75        56.62609
680.17        56.58663
680.60        56.50003
681.02        56.40836
681.45        56.37578
681.87        56.42913
682.30        56.53506
682.72        56.66468
683.15         56.7516
683.57        56.78195
684.00        56.72757
684.42        56.65249
684.85        56.69751
685.27        56.86916
685.70        57.11144
686.12        57.33323
686.54        57.42156
686.97        57.34511
687.39        57.14713
687.82        56.89328
688.24        56.70712
688.66        56.62555
689.09        56.61813
689.51        56.65966
689.94        56.67883
690.36        56.66288
690.78        56.62322
691.21        56.59756
691.63        56.63282
692.06        56.73862
692.48        56.90454
692.90        57.05947
693.33         57.0922
693.75        56.97849
694.17        56.74203
694.60        56.50643
695.02        56.42156
695.44        56.51813
695.87         56.8866
696.29        57.35316
696.71        57.25873
697.14        56.70089
697.56        56.49948
697.98        56.69928
698.41        56.74448
698.83        56.63128
699.25         56.7378
699.68        56.97614
700.10        57.06376
700.52        56.94682
700.94        56.71876
701.37           56.48
701.79        56.39669
702.21        56.50051
702.64        56.72183
703.06        56.97054
703.48        57.08923
703.90         57.0361
704.33        56.86515
704.75        56.64856
705.17        56.49338
705.59         56.4417
706.01        56.46083
706.44        56.53373
706.86        56.65697
707.28        56.80617
707.70        56.95844
708.12        57.10513
708.55        57.27569
708.97        57.43319
709.39        57.43637
709.81        57.30869
710.23        57.23642
710.66        57.24018
711.08        57.24101
711.50        57.20181
711.92        57.11904
712.34        56.99304
712.76        56.83957
713.19        56.69427
713.61        56.64584
714.03        56.70105
714.45        56.83929
714.87         57.0262
715.29        57.21065
715.71        57.36609
716.13        57.48548
716.56        57.55624
716.98        57.64027
717.40        57.71299
717.82        57.76614
718.24         57.7461
718.66         57.5883
719.08        57.30776
719.50        56.92191
719.92        56.53575
720.34        56.48402
720.76        56.50962
721.19        56.76903
721.61        57.11658
722.03        57.41203
722.45        57.58935
722.87        57.68256
723.29        57.67275
723.71        57.52847
724.13        57.27164
724.55        56.92018
724.97        56.56986
725.39         56.3876
725.81        56.41206
726.23        56.57925
726.65        56.81204
727.07        57.10245
727.49        57.20177
727.91        57.31113
728.33        57.37694
728.75        57.42192
729.17        57.45378
729.59        57.44956
730.01        57.44302
730.43         57.4938
730.85        57.60506
731.27        57.75974
731.69        57.88952
732.10        57.88326
732.52        57.72327
732.94        57.45987
733.36        57.19061
733.78        56.97058
734.20        56.82797
734.62        56.94438
735.04         57.3339
735.46        56.94962
735.88        57.45646
736.30        57.50674
736.72        57.60211
737.13        57.70722
737.55        57.78443
737.97        57.88497
738.39        57.94659
738.81        57.79268
739.23        57.48548
739.65        57.37953
740.06        57.46746
740.48        57.51065
740.90        57.48421
741.32        57.55019
741.74        57.71636
742.16        57.89646
742.57        58.07331
742.99        58.25141
743.41        58.37272
743.83        58.33563
744.25        58.13316
744.67         57.7886
745.08        57.43688
745.50        57.27962
745.92        57.37228
746.34        57.65678
746.75        57.98977
747.17        58.12177
747.59        57.99864
748.01        57.69827
748.42        57.35464
748.84        57.18016
749.26        57.23077
749.68        57.43662
750.09        57.69652
750.51        57.84983
750.93        57.85204
751.35        57.77493
751.76        57.66293
752.18        57.57354
752.60        57.51884
753.01        57.51026
753.43         57.5086
753.85        57.42688
754.27        57.25357
754.68        57.22523
755.10        57.03922
755.52        57.03005
755.93        57.09967
756.35        57.23623
756.77        57.44113
757.18        57.58794
757.60        57.64907
758.02        57.86567
758.43        58.23094
758.85        57.59551
759.26        57.98569
759.68        57.45506
760.10         57.7645
760.51        57.69064
760.93        57.59102
761.34        57.57726
761.76         57.6508
762.18        57.74185
762.59        57.85019
763.01        57.93902
763.42        58.04538
763.84        58.11789
764.26        58.14989
764.67        58.13661
765.09        58.08954
765.50        57.84333
765.92        57.51566
766.33        57.40473
766.75        57.47382
767.16        57.51792
767.58        57.48923
768.00        57.53592
768.41        57.66105
768.83           57.84
769.24        57.98135
769.66        57.86702
770.07        57.56129
770.49        57.30449
770.90         57.2205
771.32        57.52656
771.73        58.09736
772.15        58.36839
772.56        58.28913
772.97        58.13482
773.39        57.99723
773.80        57.92595
774.22        57.93898
774.63        58.05775
775.05         58.1916
775.46        58.26377
775.88        58.22516
776.29        58.12647
776.70        58.02448
777.12        58.02656
777.53        58.16039
777.95        58.35315
778.36        58.55043
778.77        58.63074
779.19        58.58457
779.60        58.47642
780.02        58.32082
780.43        58.22162
780.84        58.22494
781.26        58.02234
781.67        57.76096
782.09        58.28145
782.50        59.30304
782.91        59.36837
783.33        58.53221
783.74        58.17514
784.15        58.36203
784.57        58.27514
784.98        57.97519
785.39        57.93871
785.81        58.18629
786.22        58.58569
786.63        59.00101
787.04        59.21122
787.46        59.17546
787.87        58.95226
788.28         58.6686
788.70        58.50064
789.11        58.47594
789.52        58.56053
789.93         58.6903
790.35        58.75361
790.76        58.73385
791.17        58.66594
791.58        58.59382
792.00        58.57006
792.41        58.62527
792.82        58.71825
793.23        58.80927
793.65        58.87939
794.06        58.92066
794.47        58.89498
794.88        58.79568
795.29        58.87466
795.71        58.68039
796.12        58.57967
796.53        58.49439
796.94        58.52987
797.35        58.69818
797.76         58.9856
798.18        59.27071
798.59        59.38123
799.00        59.26122
799.41        58.96143
799.82        58.62663
800.23        58.50085
800.64        58.63775
801.06        58.93496
801.47        59.29129
801.88        59.45072
802.29         59.3413
802.70        59.04712
803.11        58.66583
803.52        58.35448
803.93        58.18711
804.34        58.12605
804.75        58.16702
805.17        58.33576
805.58        58.64926
805.99        58.94048
806.40        59.18159
806.81        59.66361
807.22        60.18972
807.63         59.9782
808.04        59.18891
808.45        58.78556
808.86        58.87334
809.27        58.97171
809.68        58.98575
810.09        58.97519
810.50         58.9124
810.91        58.78799
811.32        58.70647
811.73        58.82931
812.14        59.17556
812.55        59.68635
812.96         60.1914
813.37        60.37557
813.78        60.15672
814.19        59.66013
814.60        59.06096
815.01         58.5921
815.42        58.31812
815.83        58.17372
816.24        58.15435
816.65        58.24706
817.05        58.43084
817.46        58.68983
817.87        58.96394
818.28        59.11296
818.69        59.10907
819.10        58.96685
819.51        58.78011
819.92        58.73543
820.33        58.88036
820.74        59.15423
821.14        59.45699
821.55        59.62192
821.96        59.60737
822.37        59.47269
822.78        59.28012
823.19        59.13346
823.60        59.07099
824.00        59.07228
824.41        59.09125
824.82        59.14216
825.23         59.2086
825.64        59.30116
826.04         59.3805
826.45        59.34185
826.86        59.18697
827.27         58.9531
827.68        58.71556
828.08        58.62985
828.49        58.68774
828.90         58.8488
829.31        59.08294
829.72        59.34005
830.12        59.60528
830.53        59.84745
830.94        59.98071
831.35         59.8236
831.75        59.37849
832.16        58.69323
832.57        58.00509
832.97        57.67182
833.38        57.77266
833.79        58.18437
834.20        58.73704
834.60        59.15039
835.01        59.33842
835.42         59.4181
835.82        59.41196
836.23         59.2988
836.64        59.13102
837.04        58.86902
837.45          58.688
837.86        58.93506
838.26        59.67338
838.67         60.7793
839.08        61.86796
839.48        62.20314
839.89        61.60939
840.29        60.34991
840.70        59.01187
841.11        58.28651
841.51        58.34547
841.92        58.96494
842.33        59.87935
842.73        60.60638
843.14         60.8657
843.54        60.84278
843.95        60.66404
844.35        60.57804
844.76        60.64219
845.17         60.7613
845.57        60.84863
845.98        60.75808
846.38        60.48278
846.79        60.08722
847.19        59.69312
847.60        59.46093
848.00        59.43794
848.41        59.54581
848.81        59.71343
849.22        59.75141
849.62        59.64286
850.03        59.43777
850.43         59.1954
850.84        58.95107
851.24        58.77079
851.65        58.58773
852.05        58.52727
852.46        58.71453
852.86        59.14342
853.27        59.74468
853.67        60.27742
854.07        60.50595
854.48        60.37079
854.88        59.96528
855.29        59.38957
855.69        58.94964
856.10        58.70297
856.50        58.64185
856.90        58.68725
857.31        58.71534
857.71        58.72553
858.12        58.70387
858.52        58.70474
858.92         58.7095
859.33        58.70212
859.73        58.71648
860.13        58.68632
860.54        58.53429
860.94        58.29626
861.34        57.98937
861.75        57.73478
862.15        57.76415
862.55        58.09826
862.96        58.63269
863.36        59.23973
863.76        59.62496
864.17        59.68607
864.57        59.53885
864.97        59.22237
865.38        58.81676
865.78        58.40073
866.18        57.93912
866.58        57.56614
866.99         57.5146
867.39        57.84005
867.79        58.48071
868.19        59.20116
868.60        59.61097
869.00        59.64427
869.40        59.35836
869.80        58.95612
870.21        58.84004
870.61        59.16626
871.01         59.7426
871.41        60.28064
871.81        60.37934
872.22        59.96812
872.62         59.1879
873.02        58.29834
873.42         57.7382
873.82        57.64499
874.22        57.87583
874.63        58.23162
875.03        58.41504
875.43        58.31754
875.83          58.047
876.23        57.69357
876.63        57.38528
877.03        57.18101
877.44        57.01612
877.84        56.90159
878.24        56.91107
878.64        56.99557
879.04        56.96096
879.44        56.90853
879.84         57.1276
880.24        57.60303
880.64         58.1902
881.04        58.62169
881.44        58.49809
881.84        57.76675
882.24        56.60288
882.65        55.38296
883.05        54.68751
883.45        54.67182
883.85        55.16788
884.25        55.96646
884.65        56.68771
885.05        57.16545
885.45        57.49278
885.85        57.66358
886.25        57.67559
886.65        57.55979
887.05        57.29525
887.45          56.973
887.85        56.77773
888.25        56.75555
888.65        56.86578
889.04        57.03401
889.44        57.15076
889.84        57.16605
890.24        57.11973
890.64        57.00919
891.04        56.83267
891.44         56.6144
891.84        56.36692
892.24        56.15077
892.64        56.05572
893.04         56.1048
893.44          56.286
893.83        56.57492
894.23        56.87127
894.63         57.1549
895.03        57.42326
895.43        57.68554
895.83        57.96978
896.23        58.25724
896.63        58.49836
897.02        58.62486
897.42        58.56856
897.82        58.31889
898.22        57.93824
898.62        57.46946
899.01        56.95894
899.41        56.46403
899.81         55.9872
900.21        55.61633
900.61        55.48612
901.00        55.61088
901.40        55.94014
901.80        56.34335
902.20        56.60084
902.59         56.6597
902.99        56.57178
903.39        56.40369
903.79        56.27576
904.18        56.21675
904.58        56.17049
904.98          56.173
905.38        56.29065
905.77        56.52397
906.17        56.89728
906.57        57.22992
906.96        57.21448
907.36        56.79942
907.76        56.08914
908.15        55.44792
908.55          55.437
908.95        56.16705
909.34        57.46141
909.74        58.84978
910.14        59.62491
910.53        59.55671
910.93        58.87573
911.33        57.89064
911.72        57.07728
912.12        56.65777
912.52        56.51074
912.91        56.52388
913.31        56.54242
913.70        56.51814
914.10        56.47457
914.49        56.57016
914.89        56.97475
915.29        57.70427
915.68        58.67514
916.08        59.49622
916.47        59.60181
916.87        58.91359
917.26        57.62197
917.66        56.27256
918.05        55.54359
918.45        55.58834
918.84        56.25838
919.24        57.15251
919.64        57.67518
920.03        57.64095
920.42        57.18948
920.82        56.66931
921.21        56.56553
921.61        56.97543
922.00        57.76769
922.40        58.56919
922.79        58.86538
923.19        58.50493
923.58        57.71942
923.98         56.8857
924.37         56.4925
924.77        56.66009
925.16        57.17904
925.55        57.85773
925.95        58.34682
926.34        58.52213
926.74        58.48793
927.13         58.2333
927.52        57.67528
927.92        56.91241
928.31        55.97475
928.70         55.1378
929.10        54.80525
929.49        55.03286
929.89        55.66514
930.28        56.54441
930.67        57.26908
931.07        57.65645
931.46        57.87197
931.85        57.82334
932.24        57.42952
932.64         56.7812
933.03        55.87896
933.42        55.10885
933.82         55.0341
934.21        55.74089
934.60        57.12306
934.99        58.70641
935.39        59.60596
935.78        59.59622
936.17        58.83253
936.56        57.79426
936.96        57.25608
937.35        57.41088
937.74        58.01493
938.13        58.65609
938.53        58.71151
938.92        58.04895
939.31        56.92874
939.70        55.71816
940.09        54.90722
940.49        54.59687
940.88        54.67114
941.27        54.94395
941.66        55.08095
942.05        54.98697
942.44        54.80019
942.84         54.6784
943.23        54.84063
943.62        55.33099
944.01        56.00378
944.40        56.74747
944.79        57.41911
945.18        57.92236
945.57        58.26697
945.97        58.32305
946.36        57.98489
946.75        57.25089
947.14         56.2526
947.53        55.21172
947.92        54.41982
948.31        53.97484
948.70        53.83483
949.09        53.99697
949.48        54.43055
949.87        55.07029
950.26         55.8695
950.65        56.70387
951.04        57.37591
951.43        57.79815
951.82        57.98609
952.21        57.90796
952.60        57.55407
952.99        56.99428
953.38        56.28748
953.77        55.63881
954.16        55.36165
954.55        55.51128
954.94        55.98413
955.33        56.62332
955.72        57.12158
956.11        57.34671
956.50        57.38707
956.89        57.17006
957.28        56.60583
957.66        55.74618
958.05         54.6753
958.44        53.71184
958.83        53.31697
959.22        53.55295
959.61        54.30302
960.00        55.23863
960.39        55.72316
960.78        55.55238
961.16        54.90852
961.55        54.11564
961.94        53.59262
962.33        53.46821
962.72        53.64506
963.11        53.99417
963.49         54.3043
963.88        54.41895
964.27        54.38357
964.66         54.3891
965.04        54.74387
965.43        55.44325
965.82        56.44572
966.21        57.29504
966.60        57.15489
966.98        55.86748
967.37        53.84052
967.76        51.87387
968.15        50.96091
968.53        51.27074
968.92        52.56367
969.31        54.28469
969.69        55.28752
970.08        55.11306
970.47        54.13461
970.86        53.03257
971.24        52.78508
971.63        53.60147
972.02        55.17276
972.40        56.98937
972.79        57.83345
973.17        57.36866
973.56          56.043
973.95        54.46626
974.33         53.3874
974.72        52.99874
975.11        53.05169
975.49        53.40649
975.88        53.77391
976.26        54.05273
976.65        54.30304
977.04        54.51442
977.42        54.61808
977.81        54.57373
978.19        54.35177
978.58        54.10689
978.96        54.07215
979.35        54.27473
979.74        54.66361
980.12        55.13143
980.51        55.27263
980.89        55.10609
981.28        54.73797
981.66        54.34818
982.05        54.14479
982.43        54.19629
982.82        54.39754
983.20        54.82873
983.59        55.56109
983.97        56.60176
984.35        57.88641
984.74         58.9665
985.12         59.3296
985.51        58.80735
985.89        57.60501
986.28        56.25378
986.66        55.47465
987.04        55.51807
987.43        56.18666
987.81        57.19664
988.20         57.8918
988.58        58.02751
988.96        57.69815
989.35         57.1624
989.73         56.8051
990.12        56.70423
990.50        56.79991
990.88        56.74035
991.27        55.98138
991.65        54.50419
992.03        52.58681
992.42        50.95287
992.80        50.55367
993.18         51.5552
993.56        53.73022
993.95        56.27261
994.33        57.73635
994.71        57.51852
995.10        56.10751
995.48        54.33814
995.86        53.55296
996.24        54.06847
996.63        55.36591
997.01        57.06574
997.39        58.09385
997.77        57.99511
998.15        57.26194
998.54         56.0625
998.92        54.47938
999.30        52.78144
999.68        50.97908
1000.06        49.68541
1000.45        49.77602
1000.83        51.45826
1001.21        54.59951
1001.59        58.47267
1001.97        61.15088
1002.35        61.79937
1002.73        60.92755
1003.12        59.45315
1003.50        58.55358
1003.88        58.64669
1004.26        59.22049
1004.64        60.26691
1005.02        61.70842
1005.40        63.29259
1005.78        65.19598
1006.16        66.49689
1006.54        65.70872
1006.92        62.83449
1007.30        58.45812
1007.69        54.27861
1008.07        52.57406
1008.45        53.97663
1008.83        58.00263
1009.21        63.38171
1009.59         66.8533
1009.97        66.83826
1010.35         64.2951
1010.73        60.52222
1011.11        57.42086
1011.49        55.65065
1011.86         54.6457
1012.24         54.3517
1012.62         54.7826
1013.00        55.83568
1013.38        57.61952
1013.76        59.86705
1014.14        61.60418
1014.52        62.26527
1014.90         61.9614
1015.28        60.86067
1015.66        59.34314
1016.04        57.60542
1016.41        55.54348
1016.79        53.64578
1017.17        52.87126
1017.55        53.41721
1017.93        55.02606
1018.31         56.8615
1018.69         57.6842
1019.06         57.2083
1019.44        55.64486
1019.82        53.52912
1020.20        52.27118
1020.58        52.43533
1020.95        53.44168
1021.33         54.6926
1021.71        55.39476
1022.09        55.44838
1022.46        55.28833
1022.84         54.9151
1023.22        54.36957
1023.60        53.84452
1023.97        53.09757
1024.35        53.01499
1024.73        54.64733
