SpectraSmart Spectrum 2.9.0.0
--------- Device Information -----------
Spectrum Name :  反射率_0
Saving Time :  2024/04/27 00:00:20
Spectro-Module Model Name : SE2030-DUVN
Spectro-Module Serial Number : OS361AC55029948
Wavelength Start : 200
Wavelength End : 1025
Wavelength Unit : Wavelength(nm)
Spectrum Unit : Reflectance(%)
-----------Spectrum Setting ------------
Integration Time : 20ms
Average : 10
Boxcar : 0
Background removal :  enabled
linearity correction :  enabled
SC :  disabled
Intensity correction :  disabled
DWT denoise :  enabled
savitzky-golay :  disabled
FFT :  disabled
Running average :  disabled
Kalman :  disabled
High pass :  disabled
---------------BEGIN--------------------
Wavelength(nm)             Reflectance(%)
200.29               0
200.75        48.19605
201.21        43.50805
201.67        39.60731
202.13        37.80687
202.58        37.97996
203.04         40.0386
203.50         43.7746
203.96        47.62905
204.42        50.12849
204.88        51.11684
205.34        50.41418
205.80         48.5798
206.26        46.21106
206.72        43.44786
207.18        40.67826
207.64        37.75797
208.10        34.33975
208.55         30.1603
209.01        25.40154
209.47         23.9587
209.93        27.41621
210.39        32.78546
210.85        37.73145
211.31        42.39251
211.77         48.5747
212.23         60.1395
212.69        87.70021
213.14        136.9188
213.60        139.8698
214.06        108.7586
214.52        85.94839
214.98        74.52833
215.44        68.14662
215.90        62.76153
216.36        58.36077
216.81        55.49672
217.27        54.55104
217.73        56.56206
218.19        60.08404
218.65        58.82121
219.11        52.39466
219.57        45.23856
220.02         41.7511
220.48        44.60517
220.94         53.6829
221.40        70.36925
221.86        93.60812
222.32        106.7402
222.77        96.96384
223.23        76.22437
223.69        57.18815
224.15        46.61519
224.61        42.71884
225.06        41.84406
225.52        42.51463
225.98        43.27026
226.44        43.71881
226.90        44.42651
227.36        44.90693
227.81        44.22148
228.27        42.52821
228.73        40.08495
229.19        37.97107
229.65        37.47902
230.10        38.58191
230.56        40.83112
231.02        43.17192
231.48        43.89009
231.93        42.71695
232.39        40.64197
232.85        38.60141
233.31        37.84292
233.77        38.49635
234.22        40.05614
234.68        42.04795
235.14         43.8934
235.60        45.34774
236.05        46.69628
236.51        47.68645
236.97        47.76818
237.43        46.86994
237.88        45.13184
238.34        43.35112
238.80        43.16335
239.26         45.2201
239.71        49.89034
240.17        56.74529
240.63        63.80263
241.08        69.43933
241.54        73.02859
242.00        75.42403
242.46        79.47134
242.91        87.63177
243.37        100.3398
243.83        118.2649
244.28        134.6907
244.74        137.8107
245.20        127.0545
245.66        111.9944
246.11        101.2889
246.57          95.907
247.03        93.24648
247.48        90.72768
247.94        85.26662
248.40        78.37118
248.85        72.25739
249.31        68.08936
249.77        65.51756
250.22        63.75204
250.68        62.13976
251.14        60.59851
251.59        59.55183
252.05        59.74106
252.51        61.50675
252.96        62.99873
253.42        62.83127
253.88        61.23472
254.33        58.49426
254.79         57.2892
255.25        59.74211
255.70        65.32221
256.16        72.98792
256.62        79.07883
257.07        78.29195
257.53        72.47739
257.99        65.25468
258.44          59.388
258.90        57.26089
259.35        57.67339
259.81        59.55101
260.27        61.42132
260.72        61.58564
261.18        60.19668
261.63        57.81933
262.09        55.54081
262.55        53.96427
263.00        53.01543
263.46         52.5344
263.91        51.93944
264.37        50.82047
264.83        49.17243
265.28        47.23115
265.74        45.58625
266.19         44.6763
266.65        44.56813
267.11        44.94122
267.56        45.40578
268.02        45.35241
268.47        44.62546
268.93        43.47479
269.38        42.07874
269.84        40.76769
270.30        39.64703
270.75        38.59829
271.21         37.7223
271.66        37.12059
272.12        36.77537
272.57        36.64645
273.03        36.49519
273.48        35.91272
273.94        34.89532
274.39        33.56932
274.85        32.27223
275.31        31.35045
275.76        30.84079
276.22        30.62814
276.67        30.53195
277.13         30.3768
277.58        30.05627
278.04        29.66193
278.49        29.15659
278.95        28.58844
279.40        27.94716
279.86        27.29788
280.31        26.64789
280.77        26.10984
281.22        25.66607
281.68         25.3308
282.13        25.07683
282.59        24.93444
283.04         24.8633
283.50        24.87508
283.95        24.88476
284.41        24.76923
284.86         24.5141
285.32        24.18255
285.77        23.87876
286.22        23.80817
286.68        23.99372
287.13         24.3299
287.59        24.70411
288.04        24.90119
288.50        24.88979
288.95        24.71533
289.41        24.47374
289.86        24.24387
290.32        24.09723
290.77        24.01008
291.22        23.99782
291.68         24.0691
292.13        24.22717
292.59        24.50564
293.04        24.93563
293.50        25.57155
293.95        26.40395
294.40        27.40962
294.86        28.52365
295.31         29.6391
295.77        30.73329
296.22         31.8171
296.68        32.94266
297.13        34.18246
297.58        35.56428
298.04        37.06741
298.49        38.65079
298.95        40.26801
299.40        41.88655
299.85        43.51758
300.31        45.18217
300.76        46.89349
301.21        48.65944
301.67        50.48801
302.12        52.31643
302.58        54.13058
303.03        55.89153
303.48         57.6412
303.94        59.44555
304.39        61.34388
304.84        63.36264
305.30        65.47578
305.75        67.60012
306.20        69.69373
306.66        71.74047
307.11          73.717
307.57        75.60156
308.02        77.26237
308.47        78.72005
308.93        80.01341
309.38        81.25719
309.83        82.74371
310.29         84.5197
310.74        86.49152
311.19        88.42427
311.65        89.89923
312.10         90.8008
312.55        91.25929
313.00        91.54795
313.46        92.09705
313.91        92.99432
314.36        94.14027
314.82        95.33966
315.27        96.28769
315.72        96.87656
316.18        97.23509
316.63        97.47671
317.08        97.82085
317.53        98.33338
317.99        98.93007
318.44        99.54697
318.89        100.0581
319.35        100.4199
319.80        100.6805
320.25        100.8909
320.70        101.1281
321.16        101.4156
321.61        101.7706
322.06        102.1356
322.51        102.4292
322.97        102.6194
323.42        102.7287
323.87        102.8747
324.32        103.2709
324.78        103.9118
325.23         104.806
325.68        105.6458
326.13        105.9315
326.59        105.5616
327.04         104.723
327.49        103.8184
327.94        103.5137
328.39        103.9704
328.85        104.9668
329.30        106.2566
329.75        107.1345
330.20        107.3631
330.66        107.1108
331.11        106.6978
331.56        106.5663
332.01        106.8636
332.46        107.4309
332.92        108.0471
333.37        108.5122
333.82        108.6884
334.27         108.705
334.72        108.6869
335.17         108.808
335.63        109.1249
336.08        109.6364
336.53         110.296
336.98        111.0783
337.43        111.9483
337.88        112.8794
338.34        113.8205
338.79        114.8091
339.24        115.7531
339.69        116.6191
340.14        117.2715
340.59        117.5196
341.05          117.39
341.50        116.9753
341.95         116.521
342.40        116.3948
342.85         116.698
343.30         117.327
343.75        118.1668
344.20        119.0068
344.66        119.7488
345.11         120.436
345.56        120.9942
346.01        121.3177
346.46        121.4169
346.91        121.3221
347.36        121.1755
347.81        121.2262
348.26        121.5155
348.72        121.9506
349.17         122.427
349.62        122.8082
350.07        123.0366
350.52        123.1858
350.97        123.1541
351.42        122.7813
351.87        122.0958
352.32        121.1646
352.77        120.3119
353.22        120.0118
353.67         120.333
354.13        121.1307
354.58        122.0409
355.03        122.4038
355.48        122.0408
355.93        121.1313
356.38        120.0553
356.83        119.3951
357.28        119.2698
357.73        119.4798
358.18        119.6896
358.63        119.3694
359.08        118.4042
359.53        117.0056
359.98        115.4874
360.43        114.2879
360.88        113.5097
361.33        113.0101
361.78        112.5893
362.23        111.9413
362.68        110.9963
363.13        109.8772
363.58         108.732
364.03        107.7697
364.48        107.0344
364.93        106.4345
365.38        105.8779
365.83        105.2352
366.28         104.469
366.73        103.6346
367.18        102.7654
367.63        101.8995
368.08        101.0608
368.53        100.2441
368.98        99.46459
369.43        98.74669
369.88        98.09321
370.33        97.49445
370.78        96.94344
371.23         96.4325
371.68        95.94285
372.13        95.45332
372.58        94.93187
373.03        94.32955
373.48        93.63231
373.93        92.86058
374.38        92.01592
374.83        91.11246
375.28         90.1796
375.72        89.21021
376.17        88.33308
376.62        87.62555
377.07        87.10754
377.52        86.77522
377.97         86.5208
378.42        86.17735
378.87        85.70521
379.32        85.11592
379.77        84.57522
380.22        84.33069
380.67        84.39755
381.11        84.72442
381.56        84.95532
382.01        84.59447
382.46         83.5824
382.91        82.14846
383.36        80.73687
383.81        79.95045
384.26        79.88107
384.71         80.3216
385.15        80.95587
385.60        81.23536
386.05        80.99401
386.50        80.39468
386.95        79.61082
387.40        78.91556
387.85        78.40359
388.29        77.93954
388.74        77.56765
389.19        77.15402
389.64        76.67525
390.09        76.17841
390.54        75.70963
390.98        75.31716
391.43        75.05105
391.88        74.86601
392.33        74.72353
392.78        74.52896
393.23        74.25721
393.67        74.02259
394.12        73.87505
394.57        73.46455
395.02        72.92288
395.47        72.86535
395.91        73.20368
396.36        73.18966
396.81        72.80172
397.26        72.46475
397.71        72.21009
398.15        71.94056
398.60        71.75902
399.05        71.45226
399.50        71.10204
399.95        71.23064
400.39         71.6683
400.84        71.39427
401.29        70.48512
401.74        69.98304
402.18        69.92983
402.63        69.58515
403.08        69.02674
403.53        68.75683
403.97        68.78883
404.42        68.93578
404.87        69.08248
405.32        69.06083
405.76        68.82008
406.21        68.51845
406.66        68.23189
407.11        67.95051
407.55        67.81738
408.00        68.03522
408.45        68.48846
408.90        68.84131
409.34        68.85388
409.79        68.21489
410.24        67.18258
410.68        66.54477
411.13        66.40051
411.58        66.32795
412.03         66.2507
412.47        66.23209
412.92        66.21555
413.37        66.21356
413.81        66.21182
414.26        66.25436
414.71        66.31834
415.15         66.4024
415.60        66.47534
416.05        66.56937
416.49        66.68818
416.94        66.81657
417.39        66.92276
417.83        66.94196
418.28        66.87292
418.73        66.73632
419.17        66.60087
419.62        66.57869
420.07        66.67753
420.51        66.83301
420.96         66.9967
421.41        67.00645
421.85        66.80864
422.30        66.62968
422.74        66.43275
423.19        66.01932
423.64        65.50388
424.08        65.44934
424.53        65.79585
424.98        65.99473
425.42        66.00303
425.87        66.10865
426.31        66.29406
426.76        66.34045
427.21        66.26306
427.65        66.13523
428.10          65.979
428.54         65.9654
428.99        66.14381
429.44        66.06936
429.88        65.92196
430.33        66.64606
430.77        67.81138
431.22        68.24592
431.66        67.85238
432.11        67.01871
432.56        66.09763
433.00        65.96771
433.45        66.78722
433.89        67.49754
434.34        67.27224
434.78        68.89193
435.23        66.72478
435.67        65.32075
436.12        65.99043
436.57        66.16573
437.01        66.47079
437.46        66.54014
437.90        66.39779
438.35        66.26645
438.79        66.21872
439.24        66.25859
439.68        66.35218
440.13        66.65469
440.57        67.12504
441.02        67.11164
441.46        66.73492
441.91        67.38194
442.35        68.56889
442.80        68.30649
443.24        66.90584
443.69         66.8087
444.13        67.92464
444.58        68.33241
445.02        67.97811
445.47        67.93803
445.91        68.24474
446.36        68.48946
446.80        68.64664
447.24        68.81004
447.69        68.96204
448.13         69.0593
448.58        69.10815
449.02         69.0869
449.47        69.00801
449.91        68.86927
450.36        68.70702
450.80        68.51183
451.25        68.34738
451.69        68.25546
452.13        68.25832
452.58        68.32699
453.02        68.42442
453.47        68.50339
453.91        68.53374
454.36        68.51973
454.80        68.44005
455.24        68.23784
455.69        67.90243
456.13        67.49209
456.58        67.18172
457.02          66.578
457.46        66.54842
457.91        66.84972
458.35        67.41454
458.79        67.47264
459.24         67.0102
459.68        66.32766
460.13        65.68355
460.57        65.36867
461.01        65.51596
461.46        65.64586
461.90        65.84846
462.34        66.72241
462.79        66.41465
463.23        66.58501
463.68        66.62101
464.12         66.4609
464.56        66.06354
465.01         65.5051
465.45        64.90614
465.89        64.52489
466.34        64.36306
466.78         64.5419
467.22        64.94616
467.67        64.43065
468.11        63.91118
468.55        63.91018
468.99        64.53457
469.44        64.61356
469.88         64.1088
470.32         63.6667
470.77        63.40341
471.21        63.23639
471.65        63.18775
472.10        63.27238
472.54        63.42807
472.98        63.51444
473.42        63.47854
473.87        63.52958
474.31        63.57976
474.75        63.16323
475.20        62.50179
475.64         62.4884
476.08        63.02864
476.52        63.09535
476.97        62.60265
477.41        62.33957
477.85        62.51155
478.29        61.93645
478.74        62.21637
479.18        62.97369
479.62         62.6731
480.06        62.80722
480.50        62.73474
480.95        62.74321
481.39         62.8742
481.83        62.16031
482.27        62.16433
482.72        62.53669
483.16        62.18178
483.60        62.22573
484.04        62.14861
484.48        62.53408
484.93        62.94757
485.37        62.34942
485.81        61.93117
486.25        62.20955
486.69        64.43643
487.14        64.96379
487.58        62.74458
488.02        62.00569
488.46        61.47447
488.90        61.52744
489.34         62.4469
489.79        62.74144
490.23        62.53041
490.67        61.92012
491.11        61.22228
491.55        61.03687
491.99        61.31814
492.43        61.28071
492.88          60.918
493.32        60.87475
493.76        61.10301
494.20        61.26586
494.64        61.31248
495.08        61.39755
495.52        61.47507
495.96        61.38626
496.41        61.16934
496.85        61.02597
497.29        60.90698
497.73        60.98761
498.17         60.5118
498.61        60.51358
499.05        60.72232
499.49         60.8819
499.93        60.77452
500.37         60.9081
500.82        61.18639
501.26        61.33663
501.70        61.34166
502.14        61.36225
502.58        61.42262
503.02        61.46615
503.46        61.49586
503.90        61.54607
504.34        61.57033
504.78        61.47197
505.22        61.23521
505.66        60.92687
506.10        60.66325
506.54        60.43795
506.98        60.24379
507.42        60.53341
507.86        60.86442
508.30        60.33185
508.74        60.70454
509.18        60.49872
509.62        60.34275
510.06        60.16667
510.50        60.19395
510.94        60.22244
511.38         60.2588
511.82        60.27725
512.26        60.26301
512.70        60.23193
513.14        60.19708
513.58        60.17992
514.02        60.18734
514.46        60.20847
514.90        60.24203
515.34        60.28885
515.78        60.34294
516.22        60.39973
516.66        60.44519
517.10        60.45718
517.54        60.43105
517.98        60.37449
518.42        60.29682
518.86        60.21429
519.30        60.13641
519.74        60.06314
520.18        60.00396
520.62        59.97004
521.06        59.96496
521.50        59.99126
521.93        60.03966
522.37        60.07413
522.81        60.09274
523.25        60.09436
523.69        60.09719
524.13        60.13406
524.57        60.20334
525.01        60.28533
525.45        60.34192
525.89          60.313
526.32        60.18453
526.76        60.00275
527.20        59.79824
527.64        59.62336
528.08        59.50013
528.52        59.41351
528.96        59.38219
529.40        59.43249
529.83        59.55538
530.27        59.74717
530.71        59.93741
531.15        60.01949
531.59        59.97169
532.03        59.81784
532.46         59.6242
532.90        59.54213
533.34        59.59066
533.78        59.69065
534.22         59.7751
534.66        59.81503
535.09        59.74517
535.53        59.46695
535.97        59.06332
536.41        58.81454
536.85        58.76319
537.28        58.78132
537.72        58.84562
538.16        58.96276
538.60        59.10848
539.04        59.27569
539.47         59.4265
539.91          59.541
540.35        59.59755
540.79            59.6
541.22        59.55894
541.66         59.5174
542.10        59.48221
542.54        59.44729
542.97        59.40468
543.41        59.36899
543.85        59.33384
544.29        59.30767
544.72        59.27921
545.16        59.26395
545.60        59.25457
546.04        59.25675
546.47        59.27757
546.91        59.33817
547.35         59.4341
547.79        59.50927
548.22        59.55513
548.66        59.64829
549.10        59.79602
549.53         59.7483
549.97        59.54939
550.41        59.31204
550.84        59.11926
551.28        59.06873
551.72        59.15124
552.15        59.05278
552.59        59.46591
553.03        59.03077
553.46         59.6571
553.90        59.58329
554.34        59.50255
554.77         59.2712
555.21         59.0638
555.65        59.04034
556.08        59.19075
556.52        59.43928
556.96        59.65261
557.39        59.70308
557.83        59.57626
558.27        59.26132
558.70        58.87105
559.14        58.70953
559.57        58.77723
560.01        58.85187
560.45        58.90535
560.88        59.07587
561.32        59.31806
561.75        59.41965
562.19        59.39468
562.63         59.2705
563.06        59.13406
563.50        59.22754
563.93        59.44874
564.37        59.57989
564.80         59.5948
565.24        59.41937
565.68        58.99262
566.11        59.52297
566.55        58.89556
566.98        58.79727
567.42        58.70811
567.85        58.83311
568.29        59.15807
568.72        59.54978
569.16        60.03829
569.60        60.26147
570.03        60.36198
570.47        60.62023
570.90        61.19273
571.34        60.12155
571.77        60.77444
572.21        61.16973
572.64        60.73203
573.08        61.14709
573.51        60.41409
573.95        60.49411
574.38        60.98754
574.82        61.10886
575.25         61.1406
575.69        60.89182
576.12        60.59311
576.56        60.04094
576.99        60.28289
577.42        60.62441
577.86        60.76136
578.29         62.1808
578.73        61.91325
579.16        61.74442
579.60        60.93972
580.03        60.86846
580.47        60.78251
580.90        61.47311
581.33        61.43878
581.77        61.73276
582.20        62.23316
582.64        62.42352
583.07        61.56729
583.51        60.95898
583.94        60.62851
584.37        60.86806
584.81        61.04683
585.24        61.20588
585.68        61.04868
586.11        61.18837
586.54        61.37706
586.98        60.33061
587.41        59.95358
587.85        60.22852
588.28        60.65476
588.71        60.51319
589.15        60.09882
589.58        60.34033
590.01        59.82877
590.45        59.81542
590.88         60.6718
591.31        60.52606
591.75        59.82888
592.18        59.35103
592.61        59.31207
593.05        60.40689
593.48        61.23126
593.91        61.18055
594.35        60.65168
594.78        59.92851
595.21         59.4089
595.65        59.94312
596.08        60.88207
596.51        60.83175
596.94        60.14642
597.38        59.81326
597.81        60.02233
598.24          60.383
598.68        60.14896
599.11        59.60611
599.54          61.227
599.97        60.34952
600.41         60.4575
600.84         59.8771
601.27        60.30294
601.70        60.10428
602.14        60.17926
602.57        59.94327
603.00        59.82357
603.43        59.22757
603.87        60.38158
604.30        60.50089
604.73        60.29601
605.16         59.7917
605.60        59.47541
606.03        59.32364
606.46        59.42809
606.89        59.31743
607.32        59.82248
607.76        59.49095
608.19        59.83729
608.62        59.75632
609.05        59.66253
609.48        59.60033
609.92        60.34815
610.35        59.99276
610.78        59.41604
611.21        59.52982
611.64        59.30087
612.07        59.49633
612.50        59.39594
612.94        59.44632
613.37        59.52469
613.80        59.34153
614.23        59.01353
614.66          59.088
615.09        59.51038
615.52        59.62846
615.96        59.38739
616.39        59.42548
616.82        59.39714
617.25        59.24126
617.68        58.92776
618.11        59.05628
618.54        59.50538
618.97        59.44791
619.40        58.92429
619.84        58.84149
620.27        58.76906
620.70        58.97137
621.13        59.16305
621.56        58.74809
621.99        57.86919
622.42        57.78655
622.85         58.3778
623.28        58.32242
623.71        58.23938
624.14        58.43327
624.57        58.70656
625.00        58.17046
625.43        58.55941
625.86        58.50959
626.29        58.63604
626.72         58.0558
627.15        58.50803
627.58        58.45015
628.01        58.28302
628.44        58.47734
628.87        58.38012
629.30        57.88451
629.73        57.89659
630.16        57.97434
630.59         57.9705
631.02        58.20874
631.45        58.48137
631.88        58.64788
632.31        58.65233
632.74        58.54642
633.17        58.37604
633.60        58.21022
634.03        58.08168
634.46        57.96728
634.89        57.86023
635.32        57.76523
635.75        57.68445
636.18        57.56299
636.61         57.4359
637.04        57.38889
637.47        57.42808
637.89        57.52093
638.32        57.59846
638.75         57.6055
639.18         57.5276
639.61         57.3858
640.04        57.24161
640.47        57.19247
640.90        57.26117
641.33        57.41971
641.76        57.61195
642.18        57.75153
642.61        57.79019
643.04        57.75411
643.47        57.68588
643.90        57.65698
644.33        57.68131
644.76        57.73452
645.18        57.76872
645.61        57.69156
646.04        57.50406
646.47        57.25663
646.90        57.01642
647.33        56.89332
647.75        56.88955
648.18        56.96652
648.61        57.13705
649.04        57.29781
649.47        57.31547
649.89        57.91521
650.32        57.52674
650.75         57.3402
651.18        57.05613
651.61        57.04605
652.03        57.32357
652.46        57.68767
652.89        58.01175
653.32        57.96947
653.74         57.7711
654.17        57.42646
654.60        57.97823
655.03        57.67002
655.46        57.25284
655.88        57.26151
656.31        61.29196
656.74        66.51909
657.16        65.41825
657.59        63.71884
658.02        59.99947
658.45        58.78145
658.87         58.3582
659.30        58.43348
659.73        57.57995
660.15        58.42604
660.58        57.54494
661.01        57.67637
661.44        57.80951
661.86        57.54911
662.29        56.92838
662.72        57.28579
663.14        57.46888
663.57        57.43674
664.00        56.98117
664.42        56.96862
664.85        57.42033
665.27        57.87141
665.70        58.15112
666.13        58.25075
666.55        58.13392
666.98        57.74201
667.41        57.19527
667.83        57.06797
668.26        56.82928
668.69        56.90975
669.11        57.07898
669.54        57.24373
669.96        57.36812
670.39        57.47474
670.82        57.58393
671.24        57.70109
671.67        57.82162
672.09        57.91057
672.52        57.95429
672.94        57.94641
673.37         57.8259
673.80        57.65929
674.22        57.48864
674.65        57.38464
675.07        57.38403
675.50        57.45881
675.92        57.56208
676.35        57.60094
676.77        57.55527
677.20         57.4515
677.62        57.33736
678.05        57.28856
678.47        57.31988
678.90         57.4068
679.32        57.50808
679.75        57.56596
680.17        57.56153
680.60        57.53878
681.02        57.51974
681.45        57.49418
681.87        57.50821
682.30        57.61868
682.72        57.80502
683.15        57.97342
683.57        58.08154
684.00        58.02827
684.42        57.88747
684.85         57.9043
685.27        58.08961
685.70        58.31373
686.12         58.4986
686.54        58.58794
686.97        58.55558
687.39        58.43204
687.82        58.24093
688.24        58.05701
688.66        57.91153
689.09        57.73623
689.51        57.57901
689.94        57.62355
690.36        57.81662
690.78        57.82568
691.21        57.68827
691.63        57.72549
692.06        57.94809
692.48        58.17441
692.90        58.32951
693.33        58.38677
693.75        58.32341
694.17        58.11721
694.60         57.8884
695.02        57.82635
695.44        57.94072
695.87        58.23847
696.29        58.57379
696.71        58.40108
697.14        57.84309
697.56        57.69596
697.98         57.9806
698.41        58.08978
698.83        58.00818
699.25        58.14645
699.68        58.40395
700.10        58.46532
700.52         58.2769
700.94        57.94113
701.37        57.60038
701.79        57.48848
702.21        57.64952
702.64        57.99512
703.06        58.38379
703.48        58.57052
703.90        58.49292
704.33        58.23354
704.75        57.90912
705.17        57.69834
705.59        57.66132
706.01        57.73972
706.44        57.89421
706.86        58.07155
707.28        58.22976
707.70        58.40505
708.12        58.58399
708.55        58.68644
708.97        58.72645
709.39        58.79155
709.81        58.87432
710.23        58.89925
710.66        58.86379
711.08        58.83161
711.50         58.7981
711.92        58.74757
712.34        58.68632
712.76        58.62868
713.19        58.57165
713.61        58.54225
714.03        58.53479
714.45         58.5509
714.87        58.59792
715.29        58.68836
715.71        58.81376
716.13          58.951
716.56         59.0663
716.98        59.18549
717.40        59.26903
717.82        59.32101
718.24        59.30346
718.66        59.15659
719.08        58.89573
719.50        58.56589
719.92        58.26708
720.34        58.14867
720.76        58.23945
721.19        58.47068
721.61        58.79969
722.03        59.10651
722.45        59.33163
722.87        59.49393
723.29        59.55329
723.71         59.4516
724.13        59.20239
724.55        58.83774
724.97        58.45908
725.39        58.24113
725.81         58.2326
726.23         58.3695
726.65        58.59495
727.07        58.93906
727.49        59.14634
727.91        59.40273
728.33        59.62117
728.75        59.77163
729.17        59.84014
729.59        59.81764
730.01        59.73363
730.43        59.64428
730.85        59.57038
731.27        59.51081
731.69         59.4479
732.10        59.34526
732.52        59.20143
732.94          59.048
733.36        58.94796
733.78         58.8842
734.20        58.85379
734.62        59.06484
735.04        59.53258
735.46        59.15751
735.88        59.68173
736.30        59.73832
736.72         59.8523
737.13        59.95491
737.55        60.00938
737.97        60.11426
738.39         60.1964
738.81        60.00834
739.23        59.62514
739.65        59.49657
740.06        59.61757
740.48        59.67331
740.90        59.63364
741.32         59.7109
741.74        59.88124
742.16         59.9786
742.57        59.98278
742.99         59.9322
743.41        59.83846
743.83         59.7029
744.25        59.54068
744.67        59.34244
745.08        59.18868
745.50        59.18895
745.92        59.36444
746.34        59.67648
746.75        60.00322
747.17        60.13363
747.59        60.02993
748.01        59.75546
748.42        59.43049
748.84        59.27146
749.26        59.33393
749.68        59.48943
750.09        59.66544
750.51        59.88259
750.93        60.02916
751.35        59.86836
751.76        59.48266
752.18        59.22177
752.60        59.11612
753.01        59.16233
753.43        59.01702
753.85        58.98868
754.27        58.98803
754.68        59.02817
755.10        59.10974
755.52        59.23205
755.93        59.37157
756.35        59.49769
756.77        59.66461
757.18        59.78653
757.60         59.8425
758.02        60.21991
758.43        60.79904
758.85        59.98115
759.26        59.94967
759.68        59.49677
760.10        59.31574
760.51        60.11109
760.93        60.57129
761.34        60.58224
761.76        59.92832
762.18         59.7857
762.59        60.20235
763.01        60.31701
763.42        60.16613
763.84        60.15136
764.26        60.29254
764.67        60.42925
765.09        60.52383
765.50        60.34748
765.92        60.00609
766.33        59.83236
766.75        59.77057
767.16        59.66533
767.58        59.49533
768.00        59.20761
768.41         58.9745
768.83        59.44127
769.24        60.35438
769.66        60.60695
770.07        60.20317
770.49        59.85403
770.90        59.76193
771.32         60.1313
771.73        60.81439
772.15        61.05902
772.56        60.81417
772.97        60.54604
773.39        60.35482
773.80        60.17738
774.22        60.03142
774.63        59.99214
775.05        59.99058
775.46        59.97218
775.88        59.89647
776.29        59.80711
776.70        59.74089
777.12        59.77453
777.53        59.92593
777.95        60.12638
778.36        60.33417
778.77        60.45087
779.19        60.47005
779.60        60.44136
780.02        60.36652
780.43        60.33593
780.84        60.39369
781.26        60.22686
781.67        59.98075
782.09        60.52763
782.50        61.56899
782.91        61.56094
783.33        60.60995
783.74        60.23991
784.15        60.52678
784.57        60.64373
784.98         60.5666
785.39        60.51424
785.81         60.5482
786.22        60.89115
786.63        61.42192
787.04        61.65855
787.46        61.56423
787.87        61.36449
788.28        61.17144
788.70         61.0517
789.11        61.02516
789.52        61.10196
789.93        61.22722
790.35        61.28289
790.76        61.25629
791.17         61.2073
791.58        61.17596
792.00        61.12379
792.41        61.06963
792.82        61.16852
793.23        61.32007
793.65        61.12529
794.06        60.80529
794.47        60.97344
794.88        61.35925
795.29        62.43956
795.71        61.44307
796.12         61.1495
796.53        60.91783
796.94        60.75895
797.35        60.75861
797.76        61.13441
798.18        61.71914
798.59        62.01303
799.00         61.9135
799.41         61.6136
799.82         61.2682
800.23        61.08828
800.64        61.13655
801.06        61.30791
801.47        61.52917
801.88        61.59825
802.29        61.45957
802.70         61.1931
803.11        60.86547
803.52        60.57558
803.93        60.38537
804.34         60.2748
804.75        60.27762
805.17        60.48462
805.58        60.92433
805.99        61.39215
806.40          61.818
806.81        62.43956
807.22         63.0281
807.63        62.78846
808.04        61.89911
808.45         61.3844
808.86        61.36657
809.27        61.33885
809.68        61.22543
810.09        61.12903
810.50        61.03511
810.91        60.93772
811.32        60.91116
811.73        61.06026
812.14        61.39104
812.55        61.85355
812.96        62.32258
813.37        62.56582
813.78        62.51033
814.19        62.23837
814.60        61.84983
815.01        61.48076
815.42        61.17633
815.83        60.89664
816.24         60.6854
816.65        60.62541
817.05        60.73979
817.46        60.99771
817.87        61.30229
818.28        61.44973
818.69        61.39565
819.10        61.17072
819.51        60.91888
819.92        60.90991
820.33        61.20307
820.74        61.70238
821.14        62.21537
821.55        62.43465
821.96        62.28958
822.37        61.88208
822.78        61.37359
823.19        61.03648
823.60        60.96479
824.00        61.10224
824.41        61.32668
824.82        61.51912
825.23        61.61794
825.64        61.66788
826.04        61.69359
826.45        61.69192
826.86        61.68681
827.27        61.67687
827.68        61.65744
828.08        61.65661
828.49        61.63585
828.90        61.60176
829.31        61.61541
829.72        61.77429
830.12        62.10433
830.53        62.52505
830.94        62.88667
831.35        62.89128
831.75        62.49973
832.16        61.80061
832.57        61.04547
832.97        60.61379
833.38        60.60487
833.79        60.88251
834.20        61.32445
834.60        61.73103
835.01        62.02329
835.42        62.29815
835.82        62.50061
836.23        62.46243
836.64         62.2046
837.04        61.74154
837.45        61.32416
837.86        61.42681
838.26        62.15261
838.67        63.32741
839.08        64.56155
839.48        65.10242
839.89        64.73483
840.29        63.71596
840.70        62.54937
841.11        61.80143
841.51        61.63574
841.92        61.86043
842.33        62.32547
842.73        62.77481
843.14        63.00488
843.54        63.14962
843.95        63.23587
844.35         63.3429
844.76        63.47297
845.17         63.5787
845.57        63.61473
845.98        63.50209
846.38        63.25444
846.79         62.8997
847.19        62.53995
847.60          62.314
848.00        62.26374
848.41        62.32915
848.81        62.44988
849.22        62.44178
849.62        62.30317
850.03        62.09473
850.43        61.89016
850.84         61.7437
851.24        61.72818
851.65        61.76153
852.05        61.97148
852.46        62.47141
852.86        63.21909
853.27        64.11713
853.67        64.86856
854.07        65.18393
854.48        64.99984
854.88        64.42943
855.29        63.61317
855.69         62.9459
856.10        62.52125
856.50        62.32958
856.90        62.27847
857.31        62.21055
857.71        62.11971
858.12        62.00854
858.52        61.94868
858.92        61.93801
859.33        61.95829
859.73        62.02684
860.13         62.0541
860.54        61.92935
860.94        61.68209
861.34        61.34486
861.75         61.0404
862.15        61.00832
862.55        61.27523
862.96        61.72249
863.36        62.26699
863.76        62.68641
864.17        62.87916
864.57        62.93507
864.97        62.78877
865.38        62.35369
865.78        61.68386
866.18        60.80558
866.58        59.97121
866.99        59.62807
867.39        59.90819
867.79        60.68565
868.19        61.65998
868.60        62.34174
869.00        62.62137
869.40        62.57735
869.80        62.37539
870.21        62.34325
870.61        62.62079
871.01        63.02861
871.41        63.32877
871.81        63.20047
872.22         62.5947
872.62        61.63541
873.02        60.59992
873.42        59.94957
873.82        59.82851
874.22        60.10847
874.63        60.53691
875.03        60.72059
875.43        60.54138
875.83         60.1354
876.23        59.68633
876.63        59.47417
877.03        59.57592
877.44        59.85911
877.84        60.22341
878.24        60.54171
878.64        60.69756
879.04        60.56873
879.44        60.30436
879.84        60.25424
880.24        60.44572
880.64        60.73139
881.04        60.88306
881.44        60.57281
881.84        59.76117
882.24        58.60208
882.65        57.44456
883.05        56.80632
883.45        56.82742
883.85        57.38398
884.25         58.2135
884.65         58.8539
885.05        59.14203
885.45        59.17263
885.85        59.13059
886.25        59.31539
886.65        59.77908
887.05        60.39656
887.45        60.93301
887.85        61.02222
888.25        60.59377
888.65        59.80411
889.04        58.92883
889.44        58.40387
889.84        58.33381
890.24        58.59824
890.64        59.02178
891.04        59.31056
891.44        59.36298
891.84        59.26676
892.24        59.10939
892.64        59.00993
893.04        59.01744
893.44        59.11281
893.83        59.25349
894.23        59.33332
894.63        59.35139
895.03        59.31112
895.43        59.35802
895.83        59.72865
896.23        60.42056
896.63          61.314
897.02        62.07897
897.42        62.22119
897.82        61.65915
898.22        60.61675
898.62        59.41581
899.01        58.52923
899.41        58.11845
899.81        58.03668
900.21        58.23365
900.61        58.61931
901.00        59.10405
901.40        59.69384
901.80        60.22872
902.20        60.43765
902.59        60.28205
902.99        59.82952
903.39        59.23151
903.79        58.76661
904.18        58.52083
904.58        58.40966
904.98        58.46051
905.38        58.71124
905.77        59.12996
906.17        59.73949
906.57        60.28233
906.96        60.31989
907.36        59.77412
907.76         58.7885
908.15        57.80865
908.55        57.53684
908.95        58.12798
909.34        59.36532
909.74        60.77094
910.14        61.61601
910.53        61.65057
910.93        61.12405
911.33        60.27349
911.72        59.45962
912.12         58.8935
912.52        58.47533
912.91        58.21729
913.31        58.16449
913.70        58.30001
914.10        58.59043
914.49        59.04121
914.89        59.55172
915.29        60.07468
915.68        60.62059
916.08         60.9642
916.47         60.8223
916.87        60.19672
917.26        59.17426
917.66        58.19445
918.05          57.789
918.45        58.05951
918.84        58.90154
919.24        59.90605
919.64        60.45526
920.03        60.37615
920.42        59.82182
920.82        59.17581
921.21        58.98955
921.61        59.37567
922.00        60.16905
922.40        61.03212
922.79        61.50653
923.19        61.41354
923.58        60.95666
923.98        60.34661
924.37        59.81731
924.77         59.4795
925.16        59.23161
925.55        59.10629
925.95        59.15629
926.34        59.37049
926.74        59.69689
927.13        60.00751
927.52        60.02021
927.92        59.72638
928.31        59.22063
928.70        58.62305
929.10        58.09417
929.49        57.69204
929.89        57.32354
930.28        57.18721
930.67        57.52188
931.07        58.31095
931.46        59.54141
931.85        60.72996
932.24        61.12078
932.64        60.60357
933.03        59.37773
933.42        58.06115
933.82        57.57162
934.21        58.11089
934.60        59.45363
934.99        61.07347
935.39         62.0152
935.78        62.01522
936.17        61.26768
936.56         60.2511
936.96          59.712
937.35         59.8337
937.74         60.3723
938.13        60.89349
938.53        60.74828
938.92        59.83395
939.31        58.46196
939.70        57.07292
940.09        56.26191
940.49        56.14817
940.88        56.56184
941.27        57.30745
941.66        58.01792
942.05         58.5266
942.44        58.94174
942.84        59.25511
943.23        59.44646
943.62        59.53479
944.01         59.4527
944.40          59.321
944.79        59.38511
945.18        59.67161
945.57        60.11405
945.97        60.44772
946.36        60.30508
946.75        59.59547
947.14        58.53551
947.53        57.40998
947.92        56.60482
948.31        56.22885
948.70        56.16315
949.09           56.38
949.48        56.82212
949.87        57.41736
950.26        58.17388
950.65        58.90767
951.04        59.31467
951.43        59.31829
951.82        58.96152
952.21        58.46253
952.60        58.20498
952.99        58.30474
953.38        58.68783
953.77        59.16171
954.16        59.42215
954.55        59.37302
954.94        59.04605
955.33        58.67104
955.72        58.63849
956.11        59.03349
956.50        59.77752
956.89        60.38424
957.28        60.05306
957.66         58.6734
958.05        56.59679
958.44        54.61685
958.83        53.85136
959.22        54.49997
959.61        56.25277
960.00        58.38711
960.39         59.5426
960.78        59.27874
961.16        57.99057
961.55        56.42739
961.94        55.61466
962.33        55.81036
962.72        56.74092
963.11         57.9258
963.49        58.49197
963.88        58.09186
964.27        57.04336
964.66         55.9582
965.04        55.72612
965.43        56.48228
965.82        57.99791
966.21        59.61744
966.60        60.09644
966.98        59.06318
967.37        57.04025
967.76         54.8773
968.15        53.61256
968.53        53.46588
968.92        54.19401
969.31        55.31013
969.69        55.86853
970.08        55.50322
970.47        54.52248
970.86        53.64174
971.24         53.8792
971.63        55.41117
972.02        57.94226
972.40        60.63077
972.79        61.58107
973.17        60.32096
973.56        57.56433
973.95        54.52194
974.33        52.73909
974.72        52.55141
975.11        53.50942
975.49        55.12469
975.88          56.387
976.26         56.9039
976.65        56.92814
977.04        56.70235
977.42        56.56133
977.81        56.58867
978.19        56.61005
978.58        56.64111
978.96        56.72149
979.35         56.8288
979.74        57.00936
980.12        57.29528
980.51        57.48682
980.89        57.65281
981.28        57.80606
981.66        57.98132
982.05        58.20646
982.43         58.5076
982.82        58.82389
983.20        59.31151
983.59        60.16071
983.97        61.42438
984.35        62.99404
984.74        64.33054
985.12        64.78722
985.51         64.1549
985.89        62.66784
986.28        60.98012
986.66        59.99282
987.04        59.98233
987.43        60.69805
987.81         61.6955
988.20        62.00768
988.58        61.37244
988.96        60.07373
989.35        58.61689
989.73        57.70083
990.12        57.46597
990.50         57.7156
990.88        58.08929
991.27        57.99699
991.65        57.30399
992.03        56.26619
992.42        55.30997
992.80        54.97562
993.18         55.3929
993.56        56.39879
993.95        57.61105
994.33        58.47799
994.71        58.67752
995.10        58.44595
995.48        58.05783
995.86        58.03405
996.24        58.49631
996.63        59.12589
997.01        59.89527
997.39        60.44158
997.77        60.58414
998.15        60.56704
998.54        60.22354
998.92        59.15936
999.30         57.5368
999.68        55.55011
1000.06        54.01006
1000.45        54.05947
1000.83        55.98081
1001.21        59.54729
1001.59        63.91587
1001.97        66.90592
1002.35        67.55664
1002.73        66.46179
1003.12        64.63773
1003.50        63.36825
1003.88        63.10647
1004.26        63.30169
1004.64        63.95607
1005.02        65.04642
1005.40        66.36046
1005.78        68.08834
1006.16        69.30589
1006.54        68.49582
1006.92        65.63583
1007.30        61.30857
1007.69        57.16655
1008.07        55.41655
1008.45        56.67778
1008.83        60.47153
1009.21        65.57401
1009.59        68.86555
1009.97        68.82117
1010.35        66.32705
1010.73        62.63654
1011.11        59.59386
1011.49        57.80519
1011.86        56.71153
1012.24        56.19595
1012.62        56.12823
1013.00        56.40967
1013.38        57.23915
1013.76        58.44904
1014.14        59.40991
1014.52        59.80027
1014.90        59.61028
1015.28         59.1844
1015.66        59.16021
1016.04        59.65247
1016.41        60.46791
1016.79        61.23943
1017.17           61.36
1017.55        60.69984
1017.93        59.56929
1018.31        58.34811
1018.69        57.49539
1019.06        57.14406
1019.44         57.1812
1019.82        57.55555
1020.20         58.1069
1020.58        58.62611
1020.95        58.97539
1021.33        59.23069
1021.71        59.41381
1022.09        59.55644
1022.46        59.77647
1022.84        59.67292
1023.22        58.55153
1023.60        56.45182
1023.97        53.68676
1024.35        51.61589
1024.73        51.55281
