SpectraSmart Spectrum 2.9.0.0
--------- Device Information -----------
Spectrum Name :  反射率_0
Saving Time :  2024/04/27 00:06:27
Spectro-Module Model Name : SE2030-DUVN
Spectro-Module Serial Number : OS361AC55029948
Wavelength Start : 200
Wavelength End : 1025
Wavelength Unit : Wavelength(nm)
Spectrum Unit : Reflectance(%)
-----------Spectrum Setting ------------
Integration Time : 20ms
Average : 10
Boxcar : 0
Background removal :  enabled
linearity correction :  enabled
SC :  disabled
Intensity correction :  disabled
DWT denoise :  enabled
savitzky-golay :  disabled
FFT :  disabled
Running average :  disabled
Kalman :  disabled
High pass :  disabled
---------------BEGIN--------------------
Wavelength(nm)             Reflectance(%)
200.29               0
200.75        45.66262
201.21        43.39058
201.67         41.4738
202.13        40.39032
202.58        39.99344
203.04        40.56919
203.50        42.35804
203.96        45.13753
204.42        48.61763
204.88        52.77306
205.34         56.6265
205.80        58.91793
206.26        59.19316
206.72        57.28569
207.18        55.09938
207.64        54.51776
208.10        55.80783
208.55        59.90887
209.01        64.59128
209.47        62.57578
209.93        53.55553
210.39        43.72433
210.85         38.0535
211.31        38.82922
211.77        46.87099
212.23        68.01473
212.69        122.2006
213.14         211.031
213.60        203.0452
214.06        137.2889
214.52        92.99065
214.98        71.50964
215.44         59.9766
215.90        50.83769
216.36         44.0029
216.81        40.80835
217.27        41.88818
217.73        49.08787
218.19        60.31365
218.65        62.64597
219.11        53.00729
219.57        40.32774
220.02        32.95082
220.48        35.27526
220.94        47.05099
221.40        69.54117
221.86        102.9161
222.32         127.733
222.77        124.5573
223.23        105.3944
223.69        83.91004
224.15        68.13493
224.61        57.88024
225.06        50.20366
225.52        45.42449
225.98        43.83421
226.44        44.81857
226.90        48.09451
227.36        52.00899
227.81        53.57763
228.27         52.3671
228.73        49.27532
229.19        46.24659
229.65        45.60182
230.10        47.40807
230.56        50.80788
231.02        54.11348
231.48        54.70256
231.93        52.23735
232.39        48.24244
232.85        44.36433
233.31        42.66871
233.77        43.38154
234.22        45.75222
234.68        48.80563
235.14        51.15122
235.60        52.33189
236.05          52.821
236.51        52.90607
236.97         53.1746
237.43        53.89849
237.88        54.82036
238.34        55.89298
238.80        57.47324
239.26        59.76859
239.71        63.33783
240.17        67.87279
240.63        72.45424
241.08        76.37112
241.54        78.94096
242.00         81.1451
242.46        85.65297
242.91        94.92011
243.37        110.1059
243.83        132.3133
244.28        153.5474
244.74        159.1401
245.20        147.0689
245.66        128.5275
246.11        114.4163
246.57        106.1197
247.03        100.9149
247.48        95.81157
247.94         87.7879
248.40        78.89508
248.85        71.25389
249.31        66.60406
249.77        65.12373
250.22        66.13063
250.68         69.6235
251.14        74.19505
251.59        75.24006
252.05        71.32454
252.51        65.14811
252.96        60.37854
253.42        60.68848
253.88        65.06174
254.33        70.71265
254.79        76.60502
255.25        81.48328
255.70        85.13164
256.16        88.32793
256.62        89.82191
257.07        87.81483
257.53        84.00528
257.99        79.81105
258.44        76.38016
258.90        75.26641
259.35        75.45092
259.81        76.55044
260.27        77.60838
260.72        77.55154
261.18        76.58892
261.63        74.84158
262.09        73.10852
262.55        71.60042
263.00        70.23272
263.46        69.09339
263.91        67.78085
264.37        66.21519
264.83        64.40585
265.28        62.46617
265.74        60.85042
266.19        59.74051
266.65        59.20891
267.11        59.01442
267.56        58.94221
268.02         58.6733
268.47        58.09147
268.93        57.32042
269.38        56.34364
269.84        55.21972
270.30        53.97565
270.75        52.58599
271.21         51.2314
271.66        50.11587
272.12        49.27654
272.57        48.63107
273.03        48.00383
273.48         47.0843
273.94         45.8904
274.39        44.51998
274.85          43.216
275.31        42.14457
275.76        41.31988
276.22        40.70948
276.67        40.21868
277.13        39.83268
277.58        39.45288
278.04        39.10321
278.49        38.68185
278.95        38.17329
279.40         37.5228
279.86        36.83439
280.31        36.06992
280.77        35.30669
281.22        34.53304
281.68        33.81165
282.13        33.18869
282.59        32.82295
283.04         32.6804
283.50        32.74163
283.95         32.8549
284.41        32.79494
284.86        32.51374
285.32        32.11165
285.77        31.71924
286.22        31.59744
286.68        31.77733
287.13        32.11654
287.59        32.48891
288.04        32.65209
288.50        32.57447
288.95        32.31313
289.41        31.96905
289.86        31.60561
290.32        31.31547
290.77        31.08695
291.22        30.97425
291.68        31.03872
292.13        31.28776
292.59        31.73516
293.04        32.39028
293.50        33.27557
293.95        34.35815
294.40        35.61684
294.86        36.95783
295.31        38.22992
295.77        39.40915
296.22        40.51373
296.68        41.64701
297.13        42.95913
297.58        44.49712
298.04        46.22017
298.49        48.03978
298.95        49.83499
299.40        51.55168
299.85        53.22509
300.31        54.91073
300.76        56.66933
301.21        58.51689
301.67        60.43226
302.12        62.32308
302.58        64.14967
303.03        65.85613
303.48        67.50607
303.94        69.16546
304.39         70.8549
304.84        72.62159
305.30        74.46469
305.75        76.34125
306.20        78.27979
306.66        80.28035
307.11        82.28761
307.57        84.26154
308.02        86.02705
308.47        87.58348
308.93        88.97446
309.38        90.27956
309.83        91.75063
310.29        93.43383
310.74        95.24809
311.19        97.00418
311.65        98.36269
312.10        99.22643
312.55        99.69897
313.00         100.028
313.46        100.6017
313.91        101.4878
314.36        102.6036
314.82        103.7381
315.27        104.5645
315.72        104.9803
316.18        105.1275
316.63        105.1632
317.08        105.3785
317.53        105.8536
317.99        106.4831
318.44        107.1669
318.89        107.7137
319.35        108.0581
319.80        108.2658
320.25        108.4023
320.70        108.5697
321.16        108.8011
321.61        109.1066
322.06        109.4282
322.51         109.687
322.97         109.851
323.42        109.9464
323.87        110.0928
324.32        110.5039
324.78        111.1717
325.23        112.1106
325.68        112.9985
326.13        113.3151
326.59        112.9525
327.04        112.0977
327.49        111.1769
327.94        110.8982
328.39        111.4295
328.85         112.536
329.30        113.9336
329.75        114.8303
330.20        114.9707
330.66         114.551
331.11        113.9618
331.56        113.7514
332.01        114.0957
332.46        114.8039
332.92        115.5997
333.37        116.1959
333.82        116.4157
334.27        116.4123
334.72        116.3308
335.17        116.3809
335.63        116.6326
336.08        117.0731
336.53        117.6551
336.98        118.3594
337.43        119.1505
337.88        120.0046
338.34        120.8674
338.79        121.7716
339.24        122.6255
339.69        123.4082
340.14        123.9825
340.59        124.1535
341.05        123.9535
341.50        123.4729
341.95        122.9893
342.40        122.9199
342.85        123.3662
343.30        124.2027
343.75        125.2487
344.20         126.188
344.66        126.8952
345.11        127.4423
345.56         127.821
346.01         128.031
346.46        128.1166
346.91        128.0887
347.36        128.0394
347.81        128.1391
348.26        128.4094
348.72        128.7741
349.17        129.1924
349.62        129.6286
350.07        130.0346
350.52        130.4455
350.97        130.6397
351.42        130.2725
351.87        129.3382
352.32        127.9649
352.77        126.6283
353.22        126.0228
353.67        126.2668
354.13        127.1635
354.58        128.2171
355.03        128.5422
355.48        127.9162
355.93        126.6016
356.38        125.1415
356.83        124.3578
357.28        124.4092
357.73        125.0027
358.18        125.6445
358.63        125.5484
359.08        124.5296
359.53        122.8892
359.98         121.049
360.43        119.6113
360.88        118.7254
361.33        118.1871
361.78        117.7736
362.23        117.1456
362.68        116.2152
363.13        115.1332
363.58         114.007
364.03        112.9732
364.48        112.0694
364.93        111.2138
365.38        110.4094
365.83         109.686
366.28        109.0385
366.73        108.4824
367.18        107.9164
367.63        107.1657
368.08        106.2099
368.53        105.1009
368.98        104.0075
369.43        103.2025
369.88        102.7385
370.33        102.5252
370.78         102.381
371.23        102.0077
371.68         101.318
372.13        100.3952
372.58        99.37777
373.03        98.48589
373.48        97.78168
373.93        97.19666
374.38        96.63651
374.83        95.96153
375.28        95.14243
375.72        94.21868
376.17        93.33459
376.62         92.5827
377.07        91.99483
377.52        91.55073
377.97        91.16512
378.42        90.71822
378.87        90.18528
379.32        89.57929
379.77        89.03859
380.22        88.76167
380.67        88.75365
381.11        88.97348
381.56        89.10433
382.01        88.72408
382.46        87.78413
382.91        86.48444
383.36        85.19983
383.81        84.43658
384.26        84.27287
384.71         84.5351
385.15        84.97664
385.60        85.16335
386.05        84.96282
386.50        84.50252
386.95        83.89703
387.40        83.32974
387.85         82.8677
388.29        82.39508
388.74        82.00101
389.19         81.6016
389.64        81.18434
390.09         80.7828
390.54        80.39499
390.98        79.99253
391.43        79.61643
391.88        79.25114
392.33        78.93974
392.78        78.68291
393.23        78.46312
393.67        78.40687
394.12        78.47189
394.57        78.04252
395.02        77.28636
395.47        77.14011
395.91         77.5331
396.36        77.49814
396.81        77.02006
397.26        76.65874
397.71        76.44843
398.15        76.22298
398.60        76.08383
399.05        75.84339
399.50        75.54807
399.95        75.66756
400.39        76.04218
400.84        75.64576
401.29        74.60954
401.74         74.1626
402.18        74.30633
402.63        73.98932
403.08        73.31368
403.53        73.08588
403.97        73.31809
404.42        73.62979
404.87        73.87093
405.32        73.89722
405.76        73.64373
406.21        73.28808
406.66        72.90107
407.11        72.42239
407.55        72.03185
408.00        72.04314
408.45        72.38942
408.90        72.72832
409.34        72.82964
409.79        72.39339
410.24        71.63029
410.68        71.24443
411.13        71.30807
411.58        71.41048
412.03        71.43717
412.47        71.39417
412.92        71.22259
413.37        70.96204
413.81        70.67831
414.26        70.53237
414.71        70.52747
415.15        70.64587
415.60        70.81033
416.05        70.96806
416.49        71.09347
416.94        71.18949
417.39        71.26577
417.83        71.32121
418.28        71.36368
418.73         71.3862
419.17        71.39227
419.62         71.3965
420.07        71.38856
420.51        71.33868
420.96        71.28299
421.41        71.17931
421.85         70.9996
422.30        70.94752
422.74        70.90293
423.19        70.53162
423.64        69.92643
424.08        69.72588
424.53        69.93745
424.98        70.05794
425.42        70.06337
425.87        70.32589
426.31        70.73483
426.76        70.68919
427.21        70.27671
427.65        70.13316
428.10         70.2474
428.54        70.29314
428.99        70.32269
429.44        70.13972
429.88        69.94856
430.33        70.73038
430.77         72.0118
431.22        72.35811
431.66        71.73145
432.11         70.9859
432.56        70.46007
433.00        70.39622
433.45        70.92776
433.89        71.69926
434.34        71.97153
434.78         72.8026
435.23        71.72726
435.67        69.46263
436.12        70.40106
436.57        70.47382
437.01        70.92535
437.46        71.04398
437.90        70.81959
438.35         70.6078
438.79        70.53969
439.24         70.5649
439.68        70.66084
440.13        71.04572
440.57        71.61855
441.02        71.48684
441.46        70.82804
441.91        71.37655
442.35        72.64455
442.80        72.39012
443.24         70.9363
443.69        70.92351
444.13        72.21613
444.58        72.70284
445.02        72.30888
445.47        72.17954
445.91        72.38284
446.36        72.55093
446.80        72.67578
447.24        72.84241
447.69        73.01337
448.13        73.11394
448.58        73.14597
449.02        73.09824
449.47         73.0125
449.91        72.92731
450.36        72.88093
450.80        72.84278
451.25         72.8357
451.69        72.82627
452.13        72.82853
452.58        72.86168
453.02        72.90778
453.47        72.92274
453.91        72.89088
454.36        72.84557
454.80        72.77875
455.24        72.58754
455.69        72.27631
456.13        72.01864
456.58        71.94293
457.02        71.35997
457.46        71.33173
457.91        71.54147
458.35        71.99667
458.79        71.91787
459.24        71.31168
459.68        70.49058
460.13        69.76289
460.57        69.43488
461.01        69.64031
461.46        70.05869
461.90        70.46291
462.34         71.4081
462.79        71.28587
463.23        71.27013
463.68        70.96834
464.12        70.89454
464.56        70.90237
465.01        70.30728
465.45        69.33607
465.89         68.8804
466.34        68.89315
466.78        69.20811
467.22        69.76466
467.67        68.69699
468.11        68.71999
468.55        68.63689
468.99        69.12778
469.44        69.17973
469.88         68.7805
470.32        68.47162
470.77        68.29839
471.21        68.15536
471.65        68.04566
472.10        67.98084
472.54        67.96696
472.98        68.03304
473.42         68.0271
473.87        68.25605
474.31        68.49445
474.75        68.06506
475.20        67.19303
475.64        66.95244
476.08        67.34918
476.52        67.35429
476.97        66.91788
477.41        66.91401
477.85        67.42433
478.29         66.7934
478.74        67.17005
479.18        67.34977
479.62        67.48422
480.06        67.55886
480.50        67.42463
480.95        67.38458
481.39        67.43965
481.83        66.94729
482.27        67.07089
482.72        66.96516
483.16        66.85416
483.60        66.86148
484.04        66.96625
484.48        67.13608
484.93        67.20261
485.37        67.28226
485.81        66.99665
486.25        66.56622
486.69        68.15031
487.14         68.6548
487.58         66.6188
488.02        67.07935
488.46        65.82037
488.90        66.07637
489.34        67.39683
489.79        68.15228
490.23        67.30489
490.67        66.54863
491.11        65.92277
491.55        65.86512
491.99        66.27412
492.43        66.29707
492.88        65.91616
493.32        65.80799
493.76        66.00951
494.20        66.16309
494.64        66.23698
495.08        66.38821
495.52        66.54275
495.96        66.45108
496.41        66.16164
496.85        66.01183
497.29        65.92667
497.73        65.96665
498.17        65.34074
498.61        65.25684
499.05        65.45274
499.49        65.74009
499.93        65.77593
500.37        65.82973
500.82        65.88237
501.26        65.87931
501.70        65.75256
502.14          66.406
502.58        65.98976
503.02        66.09433
503.46        66.16855
503.90         66.2194
504.34        66.19186
504.78        66.04277
505.22        65.78371
505.66        65.45068
506.10        65.15398
506.54        64.93188
506.98        64.79044
507.42        65.05648
507.86        65.30212
508.30        65.09487
508.74        65.35976
509.18        65.27187
509.62        65.19069
510.06        65.16286
510.50         65.2142
510.94        65.29479
511.38        65.36508
511.82        65.39651
512.26        65.37846
512.70        65.33201
513.14        65.25535
513.58        65.18513
514.02        65.14074
514.46        65.03235
514.90        64.87457
515.34        65.12198
515.78        65.09173
516.22        65.30936
516.66        65.50034
517.10         65.5667
517.54        65.48019
517.98        65.28579
518.42        65.05563
518.86        64.88928
519.30        64.82181
519.74        64.82397
520.18        64.87025
520.62        64.91765
521.06        64.95171
521.50        64.99298
521.93        65.04192
522.37        65.07484
522.81        65.09736
523.25        65.10201
523.69         65.1078
524.13        65.15395
524.57        65.23746
525.01        65.33332
525.45        65.40718
525.89         65.4026
526.32         65.3067
526.76         65.1713
527.20        65.00053
527.64        64.82171
528.08         64.6574
528.52        64.45544
528.96        64.29601
529.40        64.40383
529.83        64.73136
530.27        65.01614
530.71        65.15848
531.15         65.2071
531.59        65.13579
532.03        64.86247
532.46         64.4944
532.90        64.31094
533.34        64.35087
533.78        64.49715
534.22        64.65381
534.66        64.75207
535.09         64.7102
535.53        64.43529
535.97        64.02686
536.41         63.8028
536.85        63.80891
537.28          63.891
537.72        64.01485
538.16        64.17673
538.60        64.34552
539.04        64.52217
539.47        64.65484
539.91        64.70446
540.35        64.65285
540.79        64.51389
541.22        64.34165
541.66        64.24876
542.10        64.25348
542.54        64.32794
542.97        64.41232
543.41        64.43966
543.85        64.38376
544.29        64.27991
544.72         64.1534
545.16        64.08021
545.60         64.0663
546.04        64.09388
546.47        64.15232
546.91        64.23798
547.35        64.35124
547.79        64.42163
548.22         64.4202
548.66        64.50389
549.10        64.73498
549.53        64.32829
549.97        64.37868
550.41        64.13172
550.84        63.99373
551.28        64.00999
551.72        64.10767
552.15        64.24115
552.59        64.45998
553.03        63.85053
553.46        64.34842
553.90        64.30009
554.34        64.27058
554.77        64.24553
555.21        64.26684
555.65        64.35561
556.08        64.47831
556.52        64.58382
556.96        64.61698
557.39        64.66103
557.83        64.67083
558.27        64.32983
558.70        63.74018
559.14        63.49084
559.57        63.58995
560.01         63.5338
560.45        63.39107
560.88        63.76524
561.32         64.4953
561.75        64.77515
562.19        64.59787
562.63        64.35848
563.06        64.18783
563.50        64.21721
563.93        64.35925
564.37        64.45399
564.80        64.46976
565.24        64.28333
565.68        63.81837
566.11         64.4005
566.55        63.73401
566.98        63.60247
567.42        63.45782
567.85        63.59736
568.29        63.99009
568.72        64.39069
569.16        64.81107
569.60        64.96478
570.03        65.03562
570.47        65.15066
570.90        65.46566
571.34         64.5009
571.77        65.05786
572.21        65.16918
572.64        64.99374
573.08        65.26595
573.51        64.62593
573.95         64.6435
574.38        65.05808
574.82        65.33887
575.25        64.95527
575.69        64.96462
576.12        65.32982
576.56        64.41923
576.99        64.64812
577.42        64.83793
577.86        64.90413
578.29        65.75208
578.73        65.71606
579.16        65.73666
579.60        64.79298
580.03        64.79294
580.47        64.73313
580.90        65.51611
581.33        65.32843
581.77        65.73409
582.20        65.71176
582.64        65.81229
583.07        65.39022
583.51        65.05658
583.94        64.92406
584.37        64.92827
584.81        65.12812
585.24        65.26472
585.68        65.22105
586.11        65.31424
586.54        65.27143
586.98        64.39371
587.41        64.05283
587.85        64.65163
588.28        64.45798
588.71        64.42132
589.15        64.05258
589.58        64.50764
590.01        64.28445
590.45        64.08702
590.88        64.86366
591.31        64.82032
591.75        64.47654
592.18         64.1922
592.61        64.14252
593.05        64.67919
593.48        65.53461
593.91        65.18906
594.35        64.77161
594.78        64.15455
595.21        63.84286
595.65        64.27922
596.08        65.39213
596.51         65.2952
596.94        64.55881
597.38        64.15558
597.81        64.25678
598.24        64.94848
598.68        64.53763
599.11        64.18221
599.54        65.46358
599.97        65.05038
600.41        64.86085
600.84        64.29018
601.27        64.72151
601.70        64.41565
602.14        64.52662
602.57        64.29716
603.00        64.21793
603.43        63.57454
603.87        64.52457
604.30        64.67032
604.73        64.71883
605.16        64.04501
605.60        64.05164
606.03        63.82883
606.46        63.79476
606.89        63.64554
607.32        64.33385
607.76        63.96021
608.19         64.2913
608.62        64.23213
609.05        64.31785
609.48        64.14229
609.92        64.56143
610.35        64.50175
610.78        63.89174
611.21        63.98297
611.64        63.99313
612.07        64.25205
612.50        64.17287
612.94        64.15775
613.37        64.06335
613.80        64.00879
614.23        63.30015
614.66        63.35215
615.09        63.87973
615.52        64.12037
615.96        63.95243
616.39         64.1735
616.82        64.22272
617.25        63.85078
617.68        63.65939
618.11        63.62541
618.54        63.91074
618.97        63.91013
619.40         63.6271
619.84        63.73449
620.27        63.63829
620.70        63.78683
621.13        63.88744
621.56        63.43097
621.99        62.58337
622.42        62.41935
622.85        62.96493
623.28        63.01791
623.71        62.83645
624.14        63.10517
624.57        63.41164
625.00        63.04863
625.43        63.40196
625.86        63.31755
626.29        63.35045
626.72        62.71869
627.15        63.26889
627.58        63.25052
628.01        63.05161
628.44        63.54577
628.87        63.24145
629.30        63.05907
629.73        62.76665
630.16        63.15846
630.59        62.89934
631.02        63.09937
631.45        63.31892
631.88        63.43498
632.31        63.39145
632.74        63.54148
633.17        63.35873
633.60         63.2783
634.03        63.15389
634.46        63.00644
634.89        62.85517
635.32        62.73057
635.75          62.667
636.18        62.64604
636.61        62.66313
637.04        62.68663
637.47        62.70567
637.89        62.74323
638.32        62.75654
638.75        62.72026
639.18        62.63292
639.61        62.50368
640.04        62.37947
640.47        62.33555
640.90        62.38803
641.33        62.51994
641.76        62.67773
642.18        62.77771
642.61        62.77625
643.04        62.70256
643.47         62.6119
643.90        62.59559
644.33        62.67082
644.76        62.80568
645.18         62.9376
645.61        62.94903
646.04        62.82553
646.47        62.61542
646.90         62.3892
647.33        62.24565
647.75        62.18821
648.18        62.24738
648.61        62.42178
649.04        62.45022
649.47        62.26328
649.89          62.916
650.32        62.68968
650.75        62.68231
651.18        62.47664
651.61        62.41922
652.03        62.57109
652.46        62.79594
652.89        62.98081
653.32        63.02275
653.74        63.07066
654.17        62.37147
654.60        62.93555
655.03        63.05561
655.46        62.15952
655.88        62.83837
656.31        65.02306
656.74        67.55178
657.16        67.04951
657.59        66.34763
658.02        63.41268
658.45        63.81462
658.87        62.93371
659.30        62.77919
659.73         62.6434
660.15        63.68427
660.58        62.77174
661.01        62.68401
661.44        62.55781
661.86        62.27385
662.29        61.83954
662.72        62.29597
663.14        62.36584
663.57        62.28421
664.00        61.83329
664.42        61.81529
664.85        62.25618
665.27        62.71134
665.70        62.99972
666.13        63.09897
666.55         62.9744
666.98        62.56612
667.41        62.01199
667.83        61.94727
668.26        61.78899
668.69        61.98832
669.11        62.27246
669.54        62.50054
669.96        62.62268
670.39        62.69343
670.82        62.73464
671.24        62.71773
671.67        62.67011
672.09        62.64034
672.52        62.64313
672.94        62.62099
673.37        62.57244
673.80        62.49728
674.22        62.43133
674.65        62.40805
675.07        62.44815
675.50        62.51867
675.92        62.57526
676.35        62.54541
676.77        62.41901
677.20        62.21491
677.62        62.01037
678.05        61.92842
678.47        61.99141
678.90        62.16792
679.32        62.36914
679.75        62.45715
680.17        62.39455
680.60        62.24878
681.02        62.09853
681.45        62.00764
681.87        62.04096
682.30        62.27744
682.72        62.63228
683.15        62.79257
683.57        62.73818
684.00        62.64026
684.42        62.57118
684.85        62.56096
685.27        62.62475
685.70        62.77049
686.12        62.92901
686.54        62.99665
686.97        62.94715
687.39         62.8226
687.82        62.66195
688.24        62.54545
688.66        62.49578
689.09        62.48629
689.51        62.50929
689.94        62.53133
690.36        62.54337
690.78        62.52573
691.21        62.50604
691.63         62.5323
692.06        62.61109
692.48        62.73071
692.90        62.82438
693.33        62.79679
693.75        62.63599
694.17        62.34893
694.60        62.06656
695.02        62.01899
695.44        62.22293
695.87        62.58509
696.29         62.9668
696.71         63.0232
697.14        62.77955
697.56        62.60458
697.98        62.58956
698.41        62.59214
698.83        62.62206
699.25        62.83966
699.68        63.11325
700.10         63.1929
700.52        63.01566
700.94         62.6772
701.37        62.32064
701.79        62.17814
702.21        62.29722
702.64        62.58836
703.06        62.93936
703.48        63.14889
703.90        63.15909
704.33        63.04066
704.75         62.8538
705.17        62.68553
705.59        62.57677
706.01         62.4927
706.44        62.46149
706.86        62.54404
707.28        62.72473
707.70        63.00646
708.12        63.30657
708.55        63.43518
708.97        63.38366
709.39        63.27891
709.81         63.1734
710.23        63.08865
710.66         63.0513
711.08        63.09499
711.50        63.16345
711.92        63.16109
712.34        63.07343
712.76        62.94427
713.19        62.79753
713.61        62.70573
714.03        62.67932
714.45        62.70294
714.87        62.78032
715.29        62.92155
715.71        63.11262
716.13        63.33226
716.56        63.52961
716.98         63.7042
717.40        63.80583
717.82        63.84295
718.24        63.79321
718.66        63.62588
719.08        63.36486
719.50        63.04755
719.92        62.76564
720.34        62.65415
720.76        62.73876
721.19        62.95782
721.61        63.27421
722.03        63.57246
722.45        63.79487
722.87        63.95505
723.29        64.01643
723.71        63.92784
724.13        63.70094
724.55        63.36481
724.97        63.00457
725.39         62.7702
725.81        62.70832
726.23        62.76355
726.65        62.90046
727.07        63.19349
727.49        63.38189
727.91        63.65448
728.33        63.90798
728.75        64.09075
729.17        64.18059
729.59        64.17561
730.01        64.10358
730.43        64.01885
730.85        63.94058
731.27        63.85947
731.69        63.76899
732.10        63.65248
732.52        63.51069
732.94        63.37535
733.36        63.28191
733.78        63.15873
734.20        63.00202
734.62        63.05502
735.04        63.38939
735.46        62.93821
735.88        63.56022
736.30        63.72693
736.72        63.97023
737.13        64.18432
737.55         64.2995
737.97        64.48534
738.39          64.641
738.81        64.30122
739.23        63.63306
739.65        63.54076
740.06        63.96104
740.48        64.11342
740.90        63.94915
741.32        63.94384
741.74        64.12065
742.16        64.26258
742.57         64.3559
742.99        64.43769
743.41        64.48305
743.83        64.43959
744.25        64.30623
744.67        64.08722
745.08        63.86576
745.50        63.75795
745.92        63.80123
746.34        63.96308
746.75        64.15872
747.17         64.2352
747.59          64.165
748.01        63.99287
748.42        63.80584
748.84        63.75782
749.26        63.88073
749.68        64.07259
750.09        64.25621
750.51        64.41751
750.93        64.47292
751.35        64.24947
751.76        63.83174
752.18        63.55441
752.60        63.45925
753.01        63.40465
753.43        63.35358
753.85        63.33267
754.27        63.34049
754.68        63.39283
755.10        63.49027
755.52        63.62568
755.93        63.77802
756.35        63.91408
756.77        64.07762
757.18        64.25207
757.60        64.42372
758.02        64.79607
758.43        65.21468
758.85        64.75808
759.26        64.42862
759.68        63.91517
760.10        63.60532
760.51        63.98829
760.93        64.28896
761.34        64.36388
761.76        64.75116
762.18        64.82706
762.59         64.8701
763.01        64.83641
763.42        64.81664
763.84        64.74516
764.26        64.66262
764.67        64.60399
765.09        64.58774
765.50         64.5255
765.92        64.44167
766.33        64.30495
766.75        64.09847
767.16        64.02102
767.58        64.05072
768.00        64.04372
768.41        64.04054
768.83        64.23901
769.24        64.52731
769.66         64.6056
770.07        64.45512
770.49        64.09116
770.90        63.71169
771.32        63.97202
771.73        64.73137
772.15         65.0065
772.56        64.74013
772.97        64.46575
773.39        64.31994
773.80        64.29526
774.22        64.40896
774.63        64.69495
775.05        65.00803
775.46        65.18563
775.88        65.14988
776.29        64.97517
776.70        64.74297
777.12        64.60726
777.53        64.62326
777.95         64.7102
778.36        64.83331
778.77        64.89771
779.19        64.88941
779.60        64.85715
780.02        64.79575
780.43        64.75231
780.84        64.77041
781.26        64.59871
781.67        64.33656
782.09        64.69978
782.50        65.53976
782.91        65.23344
783.33        64.93258
783.74        64.69038
784.15         64.8543
784.57        64.98114
784.98        65.11029
785.39        64.87313
785.81        65.17667
786.22        65.52143
786.63        66.02323
787.04        66.20766
787.46        66.04774
787.87        65.73047
788.28        65.40791
788.70        65.24386
789.11        65.26443
789.52         65.4632
789.93        65.72796
790.35        65.81629
790.76        65.70796
791.17         65.5572
791.58        65.43761
792.00        65.31741
792.41        65.23186
792.82        65.32059
793.23        65.50784
793.65        65.35851
794.06        64.99245
794.47        65.11018
794.88        65.60506
795.29        65.75183
795.71        65.48512
796.12        65.27511
796.53        65.20622
796.94         65.1135
797.35        65.08734
797.76        65.45645
798.18        66.05293
798.59        66.34885
799.00        66.24708
799.41          65.991
799.82        65.72108
800.23        65.58607
800.64        65.64095
801.06        65.80721
801.47        66.01763
801.88        66.07323
802.29        65.92113
802.70         65.6263
803.11        65.28161
803.52        65.03603
803.93        64.95993
804.34        65.01744
804.75        65.16676
805.17         65.4279
805.58        65.82304
805.99        66.01314
806.40        66.03642
806.81        66.72579
807.22        67.71285
807.63        67.22926
808.04        65.59757
808.45        64.89779
808.86        65.31953
809.27        65.78344
809.68        66.05302
810.09        66.21832
810.50        66.19073
810.91        65.94831
811.32        65.68604
811.73          65.716
812.14        66.09752
812.55        66.73239
812.96        67.38718
813.37        67.62543
813.78        67.33086
814.19        66.68452
814.60        65.91504
815.01        65.31827
815.42        64.97523
815.83        64.79702
816.24        64.77161
816.65        64.87461
817.05        65.07971
817.46        65.38078
817.87        65.70222
818.28        65.87368
818.69         65.8605
819.10        65.67004
819.51        65.43757
819.92        65.42678
820.33        65.69687
820.74        66.16649
821.14        66.64526
821.55        66.82198
821.96        66.62998
822.37         66.1711
822.78        65.63125
823.19        65.32231
823.60        65.34377
824.00         65.6311
824.41        66.00714
824.82        66.26733
825.23         66.3254
825.64        66.24348
826.04        66.10992
826.45        66.02525
826.86        66.04162
827.27        66.13304
827.68        66.22619
828.08        66.23467
828.49        66.08723
828.90        65.82269
829.31        65.58705
829.72        65.61392
830.12        65.96495
830.53        66.52412
830.94        67.04177
831.35        67.04577
831.75        66.45837
832.16        65.42583
832.57        64.33199
832.97        63.76253
833.38        63.86023
833.79        64.41571
834.20        65.18773
834.60        65.79073
835.01        66.09896
835.42        66.27641
835.82        66.33721
836.23        66.22697
836.64        66.00948
837.04        65.64767
837.45        65.38426
837.86        65.69345
838.26        66.65885
838.67        68.10239
839.08        69.55483
839.48        70.11646
839.89        69.54916
840.29        68.17335
840.70        66.61172
841.11        65.58417
841.51        65.29546
841.92        65.51802
842.33        66.07785
842.73        66.66623
843.14        67.04501
843.54        67.36291
843.95        67.62823
844.35        67.89636
844.76        68.15552
845.17        68.34103
845.57        68.41077
845.98        68.30235
846.38        68.03765
846.79        67.64999
847.19        67.23051
847.60        66.89468
848.00        66.69136
848.41        66.57373
848.81        66.53478
849.22        66.47138
849.62        66.39474
850.03        66.32977
850.43        66.27913
850.84        66.17838
851.24        66.06528
851.65        65.88245
852.05        65.79974
852.46        66.00876
852.86        66.51975
853.27         67.2381
853.67        67.86526
854.07        68.10495
854.48        67.88835
854.88        67.33584
855.29        66.60306
855.69         66.1093
856.10        65.93498
856.50        66.04602
856.90         66.2891
857.31        66.41933
857.71        66.40229
858.12        66.24581
858.52        66.05956
858.92        65.90957
859.33         65.8077
859.73        65.77007
860.13        65.69306
860.54        65.43931
860.94        65.03893
861.34        64.53927
861.75        64.10815
862.15        64.04897
862.55        64.39998
862.96        65.02927
863.36        65.77376
863.76        66.27315
864.17        66.39087
864.57        66.24255
864.97        65.88223
865.38        65.41563
865.78        64.93457
866.18        64.41447
866.58        63.94856
866.99        63.70564
867.39        63.75447
867.79          64.062
868.19        64.52911
868.60        64.96114
869.00        65.32213
869.40        65.62027
869.80        65.86875
870.21         66.0945
870.61        66.34779
871.01        66.55393
871.41        66.63366
871.81        66.49393
872.22        66.12877
872.62        65.56454
873.02        64.98564
873.42        64.69534
873.82        64.76808
874.22        65.13074
874.63        65.52296
875.03        65.53975
875.43        65.08828
875.83        64.30822
876.23        63.49507
876.63         63.1019
877.03        63.23939
877.44        63.74722
877.84        64.39617
878.24        64.81225
878.64        64.82896
879.04        64.41977
879.44        63.87818
879.84        63.75996
880.24         64.1366
880.64        64.79096
881.04        65.38029
881.44        65.38047
881.84        64.69131
882.24        63.52642
882.65        62.30397
883.05        61.65728
883.45        61.74803
883.85        62.38205
884.25        63.26887
884.65        63.90595
885.05        64.11839
885.45        64.05991
885.85        63.85806
886.25        63.70639
886.65        63.67705
887.05        63.68758
887.45        63.72772
887.85        63.80719
888.25        63.90706
888.65        64.02921
889.04        64.14061
889.44        64.20148
889.84        64.18941
890.24        64.12517
890.64        63.99287
891.04        63.77891
891.44        63.50571
891.84        63.19037
892.24        62.93115
892.64        62.86673
893.04        63.02036
893.44        63.36504
893.83        63.78945
894.23        64.05068
894.63        64.10019
895.03        63.96946
895.43         63.8018
895.83         63.8449
896.23        64.14088
896.63        64.60197
897.02        65.01032
897.42        65.04457
897.82        64.65388
898.22        63.99345
898.62        63.29388
899.01        62.88792
899.41         62.8698
899.81        63.10136
900.21         63.4852
900.61        63.86432
901.00        64.15314
901.40        64.39023
901.80        64.49695
902.20        64.33892
902.59        63.93593
902.99        63.34293
903.39        62.73293
903.79        62.39455
904.18        62.39705
904.58        62.65059
904.98        63.09442
905.38        63.63675
905.77        64.20957
906.17        64.83786
906.57        65.34222
906.96        65.43031
907.36        65.04913
907.76        64.30061
908.15        63.50511
908.55        63.16335
908.95        63.39864
909.34        64.07007
909.74        64.87195
910.14        65.36906
910.53        65.39091
910.93        65.09554
911.33        64.56709
911.72        63.92054
912.12        63.30316
912.52        62.70052
912.91        62.19908
913.31        61.95431
913.70        61.99139
914.10         62.2412
914.49        62.71118
914.89        63.30871
915.29        63.97772
915.68        64.72098
916.08        65.29329
916.47        65.37128
916.87        64.93183
917.26        64.06387
917.66        63.17237
918.05        62.73883
918.45        62.87584
918.84        63.49832
919.24        64.28934
919.64        64.80428
920.03        64.90202
920.42        64.66549
920.82        64.36726
921.21        64.38165
921.61        64.77395
922.00        65.45387
922.40        66.10175
922.79        66.31003
923.19        65.95782
923.58        65.24491
923.98        64.49492
924.37         64.1079
924.77        64.19363
925.16        64.57609
925.55        65.11578
925.95        65.55031
926.34        65.77657
926.74         65.8498
927.13        65.71982
927.52        65.24229
927.92        64.49477
928.31        63.53494
928.70        62.61563
929.10        62.09811
929.49        62.04792
929.89         62.3186
930.28        62.86195
930.67        63.46115
931.07          63.974
931.46        64.51699
931.85        64.85669
932.24        64.67308
932.64        63.99654
933.03        62.90294
933.42         61.8777
933.82        61.63499
934.21        62.30572
934.60        63.72886
934.99        65.41012
935.39        66.43256
935.78        66.54688
936.17        65.91119
936.56        64.95811
936.96        64.38459
937.35        64.37096
937.74        64.69379
938.13        65.00712
938.53        64.79824
938.92        63.98787
939.31         62.8485
939.70        61.70522
940.09        60.97794
940.49         60.7501
940.88        60.90174
941.27         61.3539
941.66        61.95034
942.05        62.58454
942.44        63.29932
942.84        63.96241
943.23        64.35649
943.62        64.45364
944.01        64.25401
944.40        63.96854
944.79        63.99212
945.18        64.38847
945.57        65.01832
945.97        65.56629
946.36        65.59099
946.75        64.95319
947.14        63.89956
947.53         62.6805
947.92        61.61419
948.31         60.8368
948.70        60.28982
949.09        60.05043
949.48        60.25243
949.87         60.8753
950.26        61.83286
950.65        62.94177
951.04        63.88566
951.43         64.5173
951.82        64.87218
952.21        64.87454
952.60        64.45121
952.99        63.68353
953.38        62.66233
953.77        61.68793
954.16        61.22947
954.55        61.38414
954.94        62.00782
955.33        62.90948
955.72         63.7053
956.11        64.21677
956.50        64.54769
956.89        64.55716
957.28        64.04993
957.66        63.05938
958.05        61.69157
958.44         60.3941
958.83        59.81671
959.22        60.06812
959.61        61.01621
960.00        62.20492
960.39        62.75624
960.78        62.40766
961.16        61.40076
961.55        60.28415
961.94        59.79593
962.33        60.10753
962.72        61.02815
963.11        62.13518
963.49        62.65693
963.88        62.27742
964.27         61.2669
964.66        60.19546
965.04        59.90633
965.43         60.5345
965.82        61.89838
966.21        63.41324
966.60        63.94472
966.98        63.15346
967.37        61.50807
967.76        59.79605
968.15        59.01671
968.53        59.36126
968.92        60.54559
969.31        62.04861
969.69        62.83765
970.08        62.49383
970.47        61.40065
970.86        60.19045
971.24        59.73476
971.63        60.22581
972.02        61.39474
972.40        62.82195
972.79        63.45368
973.17         63.0186
973.56        61.88876
973.95        60.57831
974.33        59.72395
974.72        59.47211
975.11        59.58328
975.49        59.89742
975.88        60.07356
976.26        60.03673
976.65        59.90269
977.04        59.70126
977.42        59.41686
977.81        59.04962
978.19        58.56354
978.58        58.24699
978.96        58.53876
979.35        59.47332
979.74        60.93994
980.12        62.52798
980.51        63.25837
980.89        63.01096
981.28        62.07285
981.66        60.97837
982.05        60.48186
982.43          60.778
982.82        61.58654
983.20        62.84378
983.59        64.29909
983.97        65.82196
984.35        67.46384
984.74        68.69633
985.12        68.88268
985.51        67.88393
985.89        65.92286
986.28        63.85149
986.66        62.90248
987.04        63.40059
987.43        64.99633
987.81        67.03487
988.20        68.07652
988.58        67.66049
988.96        66.18518
989.35        64.25583
989.73        62.71359
990.12        61.79464
990.50        61.28925
990.88        60.98398
991.27        60.57608
991.65        59.99903
992.03        59.40551
992.42        59.07518
992.80        59.32553
993.18        60.21718
993.56        61.65162
993.95         63.1239
994.33        63.88536
994.71        63.59449
995.10        62.55443
995.48        61.35387
995.86        60.97615
996.24         61.6285
996.63        62.89429
997.01        64.48293
997.39         65.4278
997.77         65.3289
998.15        64.63895
998.54        63.44799
998.92        61.73573
999.30        59.77824
999.68        57.63467
1000.06        56.08793
1000.45        56.25116
1000.83        58.37898
1001.21        62.29988
1001.59        67.05762
1001.97        70.18835
1002.35        70.64613
1002.73        69.08632
1003.12        66.77631
1003.50        65.36338
1003.88        65.36295
1004.26        66.12878
1004.64        67.45456
1005.02        68.86872
1005.40        69.99015
1005.78        71.16924
1006.16        71.67825
1006.54        70.29943
1006.92        67.12935
1007.30        62.67594
1007.69        58.56884
1008.07        56.99195
1008.45        58.53922
1008.83        62.73835
1009.21        68.32781
1009.59        72.04874
1009.97        72.25042
1010.35        69.80173
1010.73        65.90525
1011.11         62.3579
1011.49         59.8759
1011.86        58.04995
1012.24        56.90418
1012.62        56.48286
1013.00        56.69767
1013.38        57.59856
1013.76        59.17697
1014.14        61.05018
1014.52         62.8107
1014.90        64.34489
1015.28        65.16245
1015.66         64.7793
1016.04        63.26716
1016.41        60.76008
1016.79        58.10665
1017.17        57.00272
1017.55        57.82648
1017.93        59.94794
1018.31        62.42212
1018.69        63.86605
1019.06        63.97166
1019.44        63.25165
1019.82        61.70379
1020.20        59.59003
1020.58         57.4113
1020.95        55.05804
1021.33        53.66084
1021.71        54.49832
1022.09        57.67681
1022.46        63.38258
1022.84        69.89565
1023.22        72.58656
1023.60        69.69936
1023.97        62.59733
1024.35        55.30281
1024.73        52.48155
