SpectraSmart Spectrum 2.9.0.0
--------- Device Information -----------
Spectrum Name :  反射率_0
Saving Time :  2024/04/26 23:19:02
Spectro-Module Model Name : SE2030-DUVN
Spectro-Module Serial Number : OS361AC55029948
Wavelength Start : 200
Wavelength End : 1025
Wavelength Unit : Wavelength(nm)
Spectrum Unit : Reflectance(%)
-----------Spectrum Setting ------------
Integration Time : 20ms
Average : 10
Boxcar : 0
Background removal :  enabled
linearity correction :  enabled
SC :  disabled
Intensity correction :  disabled
DWT denoise :  enabled
savitzky-golay :  disabled
FFT :  disabled
Running average :  disabled
Kalman :  disabled
High pass :  disabled
---------------BEGIN--------------------
Wavelength(nm)             Reflectance(%)
200.29               0
200.75        46.46519
201.21        44.12888
201.67         42.4104
202.13        42.10696
202.58        43.17793
203.04        45.78296
203.50        49.93197
203.96        54.40768
204.42        57.95535
204.88        60.46068
205.34        61.17746
205.80        59.85559
206.26        56.90311
206.72        52.48803
207.18        48.47719
207.64        46.18184
208.10         45.5036
208.55        47.06277
209.01        49.07395
209.47        46.77858
209.93        40.39058
210.39        33.83287
210.85        30.66444
211.31        32.96184
211.77        42.15658
212.23        65.21914
212.69        123.0692
213.14        214.9161
213.60        202.0349
214.06        129.5814
214.52        83.97343
214.98        66.56758
215.44        62.75489
215.90        64.14845
216.36        67.70208
216.81        69.70605
217.27        68.96286
217.73        67.50563
218.19          64.328
218.65        57.95991
219.11         51.7401
219.57        47.27783
220.02        46.07874
220.48        49.49621
220.94        57.59916
221.40        72.17455
221.86        92.97073
222.32        106.7596
222.77        101.6996
223.23        86.22952
223.69        70.76169
224.15        61.36884
224.61        56.86831
225.06        54.41903
225.52        52.90233
225.98        50.86575
226.44        48.08682
226.90        45.22996
227.36        42.34328
227.81        39.62941
228.27        37.54911
228.73        35.89083
229.19        35.21275
229.65        36.21738
230.10        38.68191
230.56        42.25327
231.02        45.61231
231.48        46.61628
231.93        44.96601
232.39        41.82792
232.85        38.54507
233.31        36.88241
233.77        37.06032
234.22        38.47974
234.68        40.45532
235.14        42.04198
235.60        42.91871
236.05        43.47863
236.51        43.78789
236.97        43.91426
237.43        43.98317
237.88        43.93061
238.34        44.10657
238.80        45.45596
239.26        48.45044
239.71        53.66677
240.17        60.80684
240.63        68.32349
241.08         74.8704
241.54        79.51751
242.00        83.44559
242.46        90.39482
242.91        103.6694
243.37        124.9966
243.83        154.8996
244.28        180.0752
244.74        180.3106
245.20        155.8116
245.66        125.7591
246.11        106.8561
246.57        99.67928
247.03        99.32937
247.48        100.5675
247.94        95.72726
248.40        86.30244
248.85        77.18237
249.31        70.87289
249.77         67.8418
250.22        67.22404
250.68        67.78384
251.14        69.64318
251.59        72.72987
252.05        76.15448
252.51        79.91821
252.96        80.98058
253.42        77.21814
253.88        69.96873
254.33         60.9239
254.79        54.54457
255.25        54.38916
255.70        59.73321
256.16        68.67092
256.62        76.96123
257.07        78.21684
257.53        73.71431
257.99        67.33196
258.44        61.89929
258.90        59.90697
259.35        60.27747
259.81        61.99238
260.27         63.7332
260.72        64.00937
261.18        62.96746
261.63        61.04613
262.09        59.22226
262.55        57.97468
263.00        57.20481
263.46        56.79027
263.91        56.18462
264.37        55.04648
264.83        53.37163
265.28        51.38828
265.74        49.62973
266.19         48.4295
266.65        47.87577
267.11        47.70119
267.56        47.65514
268.02         47.3576
268.47        46.69222
268.93        45.81348
269.38        44.76795
269.84        43.68362
270.30        42.60428
270.75        41.48156
271.21        40.42879
271.66        39.56541
272.12        38.90546
272.57        38.39584
273.03         37.9098
273.48        37.22119
273.94        36.34555
274.39        35.34549
274.85         34.3916
275.31        33.58525
275.76        32.93223
276.22        32.41187
276.67        31.98278
277.13        31.67562
277.58        31.42083
278.04        31.23226
278.49        30.97507
278.95        30.56516
279.40        29.95101
279.86        29.24047
280.31        28.49109
280.77         27.8868
281.22        27.42627
281.68        27.11345
282.13        26.86757
282.59        26.65361
283.04        26.42691
283.50        26.22131
283.95        26.04804
284.41        25.93722
284.86        25.88624
285.32        25.89274
285.77        25.90896
286.22        25.93173
286.68        25.95586
287.13        25.95036
287.59        25.93843
288.04        25.91173
288.50        25.89079
288.95        25.85308
289.41        25.80145
289.86        25.67577
290.32        25.51661
290.77        25.34761
291.22        25.24519
291.68        25.30307
292.13         25.5405
292.59        25.95565
293.04        26.52464
293.50        27.22404
293.95        28.02294
294.40        28.92032
294.86        29.90399
295.31        30.94564
295.77        32.04299
296.22        33.18975
296.68        34.37898
297.13        35.58984
297.58        36.83776
298.04        38.13446
298.49        39.52474
298.95        41.09622
299.40        42.83434
299.85        44.69287
300.31        46.58646
300.76        48.36873
301.21        50.00809
301.67        51.56059
302.12         53.0379
302.58        54.54301
303.03        56.07138
303.48        57.63537
303.94         59.2617
304.39        60.92825
304.84        62.65738
305.30        64.46257
305.75        66.30466
306.20        68.20172
306.66        70.14761
307.11        72.08666
307.57        73.97516
308.02        75.65247
308.47        77.12186
308.93        78.43207
309.38        79.66755
309.83        81.07304
310.29        82.69553
310.74        84.45448
311.19        86.18583
311.65        87.58913
312.10        88.57055
312.55        89.22179
313.00        89.72933
313.46        90.39067
313.91        91.26366
314.36        92.28706
314.82        93.32993
315.27        94.19485
315.72        94.80339
316.18        95.24628
316.63        95.58928
317.08        95.97946
317.53        96.46433
317.99        96.98801
318.44        97.51498
318.89        97.96322
319.35        98.30206
319.80        98.55952
320.25        98.77468
320.70        99.00864
321.16        99.27719
321.61        99.60553
322.06        99.92722
322.51        100.1443
322.97        100.2271
323.42        100.2047
323.87        100.2233
324.32        100.5408
324.78        101.1651
325.23        102.0948
325.68        102.9979
326.13         103.329
326.59        102.9697
327.04        102.1136
327.49        101.1845
327.94        100.8832
328.39        101.3776
328.85        102.4361
329.30        103.7811
329.75        104.6574
330.20        104.8213
330.66        104.4688
331.11        103.9583
331.56        103.7944
332.01        104.1382
332.46         104.799
332.92        105.5485
333.37        106.1693
333.82        106.5018
334.27        106.6805
334.72        106.7564
335.17        106.7856
335.63        106.8141
336.08        106.8751
336.53        107.0624
336.98        107.5856
337.43        108.4688
337.88        109.6264
338.34        110.8731
338.79        112.0006
339.24        112.8482
339.69        113.4641
340.14        113.8096
340.59        113.8548
341.05        113.6763
341.50        113.3008
341.95        112.9523
342.40        112.9721
342.85        113.4387
343.30        114.2675
343.75        115.2801
344.20        116.1559
344.66        116.7806
345.11        117.2207
345.56        117.5194
346.01        117.7618
346.46        117.9961
346.91        118.1988
347.36         118.378
347.81         118.571
348.26        118.7749
348.72        118.9644
349.17        119.1664
349.62        119.4501
350.07        119.8064
350.52        120.2409
350.97        120.5338
351.42        120.3362
351.87        119.6281
352.32        118.5411
352.77        117.4989
353.22        117.1218
353.67        117.5127
354.13        118.4781
354.58        119.5807
355.03         120.043
355.48        119.6555
355.93        118.6436
356.38         117.449
356.83        116.7424
357.28        116.6647
357.73        116.9833
358.18        117.3269
358.63        117.1089
359.08        116.1955
359.53        114.8213
359.98        113.3136
360.43        112.1285
360.88        111.3783
361.33        110.9131
361.78        110.5424
362.23        109.9779
362.68        109.1478
363.13        108.1669
363.58        107.1635
364.03        106.3149
364.48        105.6577
364.93        105.1095
365.38        104.5864
365.83        103.9734
366.28        103.2413
366.73        102.4436
367.18          101.62
367.63        100.8202
368.08        100.0663
368.53         99.3437
368.98         98.6582
369.43        98.02075
369.88        97.42423
370.33        96.85927
370.78        96.30756
371.23        95.74145
371.68        95.15242
372.13        94.54812
372.58        93.92284
373.03        93.26773
373.48        92.58331
373.93        91.86852
374.38        91.15699
374.83        90.50822
375.28        89.93396
375.72        89.40061
376.17        88.90968
376.62        88.35243
377.07        87.72488
377.52        87.07925
377.97        86.46577
378.42        85.98044
378.87        85.64227
379.32        85.37695
379.77        85.20164
380.22         85.1424
380.67        85.16275
381.11        85.28268
381.56        85.24166
382.01        84.71011
382.46        83.68552
382.91        82.34224
383.36        81.05804
383.81        80.34707
384.26        80.27882
384.71        80.67651
385.15        81.26846
385.60        81.57094
386.05        81.43317
386.50        80.99585
386.95        80.37302
387.40        79.75208
387.85        79.21712
388.29        78.66209
388.74        78.20894
389.19        77.83463
389.64        77.52456
390.09        77.27745
390.54        77.05962
390.98        76.78715
391.43        76.48865
391.88        76.18002
392.33        75.87264
392.78        75.57934
393.23        75.30658
393.67        75.02277
394.12        74.82068
394.57        74.66328
395.02         74.5568
395.47        74.53973
395.91        74.56195
396.36        74.45127
396.81        74.21697
397.26        73.93893
397.71        73.65089
398.15        73.41408
398.60        73.33304
399.05         73.1389
399.50        72.88447
399.95        73.09455
400.39        73.58371
400.84        73.23225
401.29        72.17123
401.74        71.69889
402.18        71.83204
402.63        71.52482
403.08        70.86342
403.53        70.59933
403.97        70.75369
404.42        70.99932
404.87        71.19906
405.32        71.24002
405.76        71.06771
406.21         70.7478
406.66          70.388
407.11        70.19799
407.55        70.25009
408.00        70.36942
408.45        70.49021
408.90        70.68553
409.34        70.79451
409.79        70.38488
410.24        69.66502
410.68        69.32562
411.13        69.44003
411.58        69.67026
412.03        69.85229
412.47        69.84861
412.92        69.58266
413.37        69.14048
413.81        68.69406
414.26        68.55579
414.71        68.74883
415.15        69.20179
415.60        69.71707
416.05        70.02177
416.49        70.03153
416.94        69.83263
417.39        69.54372
417.83        69.33376
418.28         69.2657
418.73        69.27578
419.17        69.36371
419.62        69.53606
420.07        69.75813
420.51        70.00458
420.96        70.22073
421.41        70.24012
421.85        70.02268
422.30        69.75548
422.74        69.45097
423.19        69.10039
423.64        68.78205
424.08        68.79539
424.53        69.10209
424.98        69.41352
425.42          69.696
425.87        70.06483
426.31        70.42941
426.76        70.58704
427.21         70.5006
427.65        70.11682
428.10         69.6013
428.54        69.40697
428.99        69.62918
429.44        69.84724
429.88        70.05855
430.33        70.70744
430.77        71.47078
431.22        71.74541
431.66        71.49689
432.11        70.94482
432.56        70.35017
433.00        70.29914
433.45        70.86842
433.89        71.37852
434.34         71.3358
434.78        72.19071
435.23        71.59219
435.67        70.31685
436.12        71.09521
436.57        71.29659
437.01        71.68214
437.46        71.95184
437.90        71.52983
438.35        71.18405
438.79        70.89576
439.24        70.84101
439.68        71.01629
440.13        71.50366
440.57        72.17552
441.02         72.3388
441.46        72.03117
441.91        72.40474
442.35        73.15534
442.80        72.88428
443.24        71.85153
443.69        71.93526
444.13        73.00362
444.58        73.47011
445.02        73.26404
445.47        73.25796
445.91        73.49943
446.36        73.70405
446.80        73.86292
447.24        74.04608
447.69        74.22465
448.13        74.33785
448.58        74.39165
449.02        74.36846
449.47        74.32475
449.91        74.31744
450.36        74.38308
450.80        74.48451
451.25        74.59363
451.69        74.60863
452.13        74.52882
452.58        74.36961
453.02        74.20597
453.47        74.16617
453.91        74.27028
454.36        74.49258
454.80        74.69671
455.24        74.65785
455.69        74.35546
456.13        73.85128
456.58        73.37901
457.02        73.08212
457.46        73.07976
457.91        73.50318
458.35        74.02638
458.79        73.99387
459.24        73.39613
459.68        72.47151
460.13        71.60989
460.57        71.22903
461.01        71.46896
461.46        71.88537
461.90        72.70595
462.34        73.23948
462.79        73.46078
463.23        73.47676
463.68        73.25636
464.12        72.87581
464.56        72.36681
465.01        71.62695
465.45        70.80922
465.89        70.59501
466.34        70.88297
466.78        71.06394
467.22        71.08606
467.67        70.95451
468.11         71.0267
468.55        71.13864
468.99        71.31192
469.44         71.2625
469.88        70.99162
470.32        70.67497
470.77        70.41526
471.21         70.2981
471.65        70.34643
472.10        70.54566
472.54        70.78003
472.98        70.86281
473.42        70.74528
473.87        70.54393
474.31        70.28997
474.75        69.98656
475.20        69.72598
475.64        69.73174
476.08        69.97818
476.52        69.94503
476.97        69.53988
477.41        69.67836
477.85        69.79202
478.29        69.09456
478.74         69.8219
479.18        70.31753
479.62         70.3559
480.06        70.41101
480.50        70.20945
480.95        69.89398
481.39        69.57204
481.83        69.13528
482.27        69.11062
482.72        69.54617
483.16         69.5478
483.60        69.71204
484.04        69.72691
484.48         69.7593
484.93        69.69277
485.37        69.26976
485.81        69.43275
486.25        68.47092
486.69        69.19853
487.14        70.38992
487.58        69.75848
488.02        69.54073
488.46        68.65208
488.90        68.94686
489.34        70.13796
489.79        70.81047
490.23        69.73014
490.67        69.09347
491.11         68.7931
491.55        68.73124
491.99        68.84319
492.43        68.77855
492.88        68.54136
493.32        68.49538
493.76        68.65253
494.20        68.78546
494.64        68.86512
495.08        68.97069
495.52        69.06145
495.96        69.03317
496.41          68.895
496.85        68.77858
497.29        68.61378
497.73        68.60663
498.17        67.94622
498.61        67.92015
499.05        68.23212
499.49        68.45239
499.93        68.31266
500.37        68.50978
500.82        68.89208
501.26        68.91022
501.70        68.61639
502.14        68.56218
502.58        68.76697
503.02        68.85674
503.46        68.82859
503.90        68.91089
504.34        69.05598
504.78        69.06711
505.22         68.9185
505.66          68.687
506.10        68.47173
506.54        68.30486
506.98        68.19214
507.42        68.41501
507.86        68.66795
508.30        68.30331
508.74        68.50541
509.18        68.27846
509.62        68.07795
510.06        67.98911
510.50          68.049
510.94        68.20112
511.38        68.36655
511.82        68.45547
512.26        68.43988
512.70         68.3568
513.14          68.256
513.58        68.21609
514.02        68.25952
514.46         68.3537
514.90        68.47565
515.34        68.59221
515.78        68.68388
516.22        68.75788
516.66        68.79952
517.10        68.78385
517.54        68.71242
517.98        68.59739
518.42        68.46439
518.86        68.35696
519.30        68.29094
519.74        68.25704
520.18        68.25797
520.62        68.29241
521.06        68.35571
521.50        68.45246
521.93        68.55707
522.37        68.60526
522.81         68.5937
523.25        68.52971
523.69        68.46033
524.13        68.46516
524.57        68.55152
525.01        68.68382
525.45        68.80189
525.89        68.80746
526.32          68.675
526.76        68.46929
527.20        68.22442
527.64        67.99895
528.08        67.82167
528.52         67.6727
528.96        67.59267
529.40        67.64388
529.83        67.81778
530.27        68.09874
530.71        68.37432
531.15        68.46999
531.59        68.35181
532.03        68.06928
532.46        67.72829
532.90        67.54824
533.34        67.56733
533.78         67.6822
534.22        67.81218
534.66        67.91653
535.09        67.91253
535.53        67.68713
535.97        67.31712
536.41        67.09497
536.85        67.06145
537.28        67.07249
537.72        67.11429
538.16         67.2188
538.60        67.36738
539.04        67.55093
539.47        67.71602
539.91        67.82243
540.35        67.84524
540.79        67.79685
541.22        67.71293
541.66        67.67813
542.10        67.70244
542.54        67.76157
542.97        67.81257
543.41        67.81881
543.85        67.76257
544.29        67.67531
544.72        67.56448
545.16         67.4793
545.60        67.42033
546.04           67.38
546.47        67.38052
546.91        67.45317
547.35        67.59022
547.79        67.77394
548.22        67.94151
548.66        68.00037
549.10        67.99735
549.53        67.88075
549.97        67.71852
550.41        67.51871
550.84        67.38284
551.28         67.4503
551.72        67.62243
552.15        67.77153
552.59        67.93654
553.03        67.31326
553.46        67.74823
553.90        67.63296
554.34        67.48972
554.77        67.64264
555.21        67.53529
555.65        67.62092
556.08        67.69573
556.52        67.73428
556.96        67.71658
557.39        67.79976
557.83        67.94129
558.27        67.76146
558.70        67.32239
559.14        67.16116
559.57        67.25933
560.01        67.17456
560.45        66.97783
560.88        67.14495
561.32        67.58998
561.75        67.83918
562.19        67.85162
562.63         67.5869
563.06        67.21696
563.50        67.36159
563.93        67.85361
564.37        68.00484
564.80        67.80721
565.24        67.54138
565.68        67.13103
566.11        67.74627
566.55        66.98043
566.98        66.78702
567.42        66.61122
567.85        66.84563
568.29        67.41382
568.72        67.84926
569.16        68.16591
569.60        68.30839
570.03        68.28136
570.47        68.34587
570.90        68.66012
571.34        67.43845
571.77        68.17499
572.21        68.38983
572.64        68.17558
573.08        68.50433
573.51          68.076
573.95        67.93009
574.38        67.97022
574.82        68.16982
575.25        68.05009
575.69        68.04455
576.12        68.09708
576.56        67.48295
576.99        67.71767
577.42        67.84951
577.86        67.67279
578.29        68.55072
578.73        68.46495
579.16        68.34251
579.60        67.69728
580.03        67.72988
580.47        67.52858
580.90        68.45587
581.33        68.56033
581.77        68.46854
582.20        68.20516
582.64        68.43879
583.07        68.22536
583.51        68.07254
583.94        67.89645
584.37        67.99277
584.81        68.36938
585.24        68.32542
585.68        67.93476
586.11        67.88792
586.54        68.51241
586.98        67.47517
587.41        67.24484
587.85        67.63823
588.28        67.55129
588.71        67.64722
589.15        67.22495
589.58        67.67318
590.01        67.15586
590.45        67.42762
590.88        68.21398
591.31        68.20565
591.75        67.63087
592.18        67.16613
592.61        66.97546
593.05        67.86916
593.48        67.98605
593.91        68.06693
594.35        67.93659
594.78        67.20338
595.21         66.8134
595.65        67.20749
596.08         68.5465
596.51        68.33176
596.94        67.70037
597.38        67.29467
597.81        67.42769
598.24        68.55775
598.68         67.9969
599.11        67.86692
599.54        68.66572
599.97        67.96128
600.41        67.98877
600.84        67.34422
601.27        67.57555
601.70        67.61424
602.14        67.61958
602.57        67.53066
603.00        67.45378
603.43        67.07676
603.87        67.67163
604.30        67.84992
604.73        67.80315
605.16        67.18288
605.60        67.25131
606.03        67.05105
606.46        67.01266
606.89        66.85931
607.32        67.39562
607.76        67.40896
608.19        67.44923
608.62        67.37717
609.05        67.38531
609.48        67.25848
609.92        67.93383
610.35        67.53184
610.78        67.36671
611.21        67.29919
611.64        67.42081
612.07        67.62676
612.50         67.4804
612.94        67.46358
613.37        67.43198
613.80        67.35612
614.23        66.73217
614.66        66.76699
615.09        67.21798
615.52         67.3792
615.96        67.19402
616.39        67.19408
616.82        67.40765
617.25        67.20281
617.68        67.04052
618.11        67.19294
618.54        67.66526
618.97        67.72387
619.40        67.38423
619.84        67.17837
620.27        67.21397
620.70        67.16355
621.13        67.02618
621.56        66.68748
621.99        66.22316
622.42        66.14446
622.85        66.49171
623.28        66.26084
623.71        66.58138
624.14        66.70411
624.57        66.80826
625.00         66.8838
625.43        66.85769
625.86        66.86161
626.29        66.94839
626.72        66.43668
627.15        66.84874
627.58        66.80516
628.01        66.64832
628.44        66.92325
628.87        66.88324
629.30        66.23668
629.73         66.4326
630.16        66.36956
630.59        66.45742
631.02        66.69955
631.45        67.01627
631.88        67.18804
632.31         67.1368
632.74         67.2208
633.17        66.94795
633.60         66.8045
634.03        66.66553
634.46        66.52581
634.89        66.38526
635.32        66.27097
635.75        66.19792
636.18        66.09447
636.61        65.99861
637.04        66.00472
637.47        66.11632
637.89        66.29296
638.32        66.45509
638.75        66.54035
639.18        66.52411
639.61         66.4203
640.04        66.28424
640.47        66.20628
640.90        66.21194
641.33        66.28528
641.76        66.37378
642.18        66.39748
642.61         66.3185
643.04        66.17036
643.47        66.03024
643.90        66.02182
644.33        66.16068
644.76        66.39774
645.18        66.63155
645.61        66.68045
646.04        66.52296
646.47         66.2355
646.90        65.90992
647.33        65.71384
647.75        65.67139
648.18        65.69423
648.61        65.82049
649.04        66.06034
649.47        66.21542
649.89        66.90374
650.32        66.33817
650.75         66.0944
651.18        65.80882
651.61         65.8713
652.03        66.29891
652.46        66.48096
652.89        66.28798
653.32        66.46465
653.74        67.17084
654.17        65.83968
654.60        66.21696
655.03         66.7768
655.46        65.66045
655.88        65.83403
656.31        67.77225
656.74        67.93092
657.16        68.70332
657.59        70.03918
658.02        67.39299
658.45        67.48029
658.87          66.438
659.30        66.41772
659.73        66.29591
660.15         66.9372
660.58        66.26057
661.01         66.1972
661.44        66.22543
661.86         66.0163
662.29        65.58084
662.72        65.95221
663.14         65.8569
663.57        65.90981
664.00        65.80084
664.42        65.91222
664.85        66.24758
665.27        66.61089
665.70        66.86254
666.13        66.92884
666.55        66.78769
666.98        66.38942
667.41        65.84952
667.83        65.78842
668.26        65.57611
668.69        65.71229
669.11        65.91872
669.54        66.06962
669.96        66.12569
670.39        66.12399
670.82        66.11018
671.24        66.12537
671.67        66.18123
672.09        66.24113
672.52        66.30241
672.94        66.32621
673.37        66.31177
673.80        66.26387
674.22        66.21267
674.65        66.16927
675.07        66.15771
675.50        66.16157
675.92        66.15984
676.35        66.10554
676.77         65.9958
677.20        65.84801
677.62        65.70982
678.05         65.6503
678.47        65.67467
678.90        65.78548
679.32        65.93764
679.75        65.99924
680.17        65.92908
680.60        66.04551
681.02        65.87137
681.45        65.85812
681.87        65.88062
682.30        65.93885
682.72        66.02035
683.15        66.04879
683.57        66.04545
684.00        66.06293
684.42        66.12614
684.85        66.22884
685.27        66.35966
685.70        66.53596
686.12        66.69329
686.54        66.73794
686.97         66.6507
687.39         66.4701
687.82        66.24763
688.24        66.08726
688.66        66.01944
689.09        66.02023
689.51        66.07558
689.94        66.12819
690.36        66.16714
690.78        66.19042
691.21        66.22374
691.63        66.30036
692.06        66.42252
692.48        66.57909
692.90        66.70119
693.33        66.68939
693.75        66.53298
694.17        66.24172
694.60        65.93779
695.02        65.85271
695.44        66.00468
695.87        66.25906
696.29        66.51277
696.71        66.56656
697.14         66.4166
697.56        66.22598
697.98        66.08923
698.41        66.03143
698.83        66.06527
699.25        66.25023
699.68        66.47646
700.10        66.58772
700.52        66.52553
700.94        66.35102
701.37        66.16241
701.79         66.1225
702.21        66.26015
702.64        66.50734
703.06        66.77738
703.48        66.91309
703.90        66.87068
704.33        66.70123
704.75        66.47279
705.17        66.28323
705.59        66.17783
706.01        66.13554
706.44        66.14037
706.86        66.19955
707.28         66.2953
707.70        66.38265
708.12        66.48362
708.55        66.71565
708.97        67.02435
709.39        67.15334
709.81        67.08965
710.23        67.06055
710.66        67.07397
711.08        66.99758
711.50        66.85056
711.92        66.75482
712.34        66.72934
712.76        66.75741
713.19        66.78931
713.61        66.77673
714.03        66.69794
714.45        66.58449
714.87        66.51045
715.29        66.58804
715.71        66.82792
716.13        67.17404
716.56        67.51965
716.98        67.77499
717.40        67.85891
717.82        67.81092
718.24        67.64742
718.66        67.39847
719.08        67.10829
719.50        66.79387
719.92        66.53179
720.34        66.43549
720.76        66.52213
721.19         66.7384
721.61        67.05073
722.03        67.34313
722.45        67.55919
722.87        67.71152
723.29        67.76392
723.71        67.66443
724.13        67.41772
724.55        67.07372
724.97        66.73041
725.39        66.48146
725.81        66.35806
726.23         66.6115
726.65        66.65358
727.07        66.96462
727.49        67.10687
727.91        67.30091
728.33        67.46801
728.75        67.61661
729.17        67.74451
729.59        67.82808
730.01        67.84879
730.43        67.81853
730.85        67.74851
731.27        67.58274
731.69        67.34206
732.10        67.39084
732.52        67.20422
732.94         67.2207
733.36        67.27554
733.78        67.23888
734.20        67.07839
734.62        67.07472
735.04        67.33739
735.46          66.771
735.88        67.36951
736.30        67.50765
736.72        67.72863
737.13        67.91409
737.55        67.99445
737.97        68.07285
738.39        68.10243
738.81         67.8844
739.23        67.51319
739.65        67.44479
740.06        67.64064
740.48        67.72943
740.90        67.67183
741.32        67.70849
741.74        67.84998
742.16        67.97679
742.57        68.07961
742.99        68.18085
743.41        68.25089
743.83        68.21009
744.25        68.06433
744.67        67.86099
745.08         67.6944
745.50        67.65442
745.92        67.77443
746.34        68.04096
746.75        68.32656
747.17        68.39759
747.59        68.21561
748.01        67.85186
748.42        67.45831
748.84        67.28386
749.26        67.38435
749.68        67.65866
750.09         67.9724
750.51        68.14878
750.93         68.1143
751.35        67.88046
751.76        67.53128
752.18        67.26998
752.60        67.13847
753.01        67.06673
753.43        67.03188
753.85        67.04919
754.27        67.11424
754.68        67.24484
755.10        67.40509
755.52        67.52605
755.93        67.58427
756.35        67.57424
756.77         67.5746
757.18         67.6571
757.60        67.82339
758.02        68.18554
758.43        68.59272
758.85        68.32215
759.26        67.96395
759.68        67.65696
760.10        67.58463
760.51        67.60021
760.93        67.74297
761.34        67.28822
761.76        67.68702
762.18        67.89912
762.59        68.30772
763.01        68.50143
763.42        68.51445
763.84        68.54655
764.26        68.60323
764.67        68.50867
765.09        68.33112
765.50        68.12065
765.92        67.96358
766.33        67.91906
766.75        67.90077
767.16        67.87055
767.58        67.77649
768.00        67.56145
768.41        67.35587
768.83        67.60652
769.24        68.16874
769.66        68.33117
770.07        68.09322
770.49        67.90316
770.90        67.89362
771.32        68.23967
771.73        68.80933
772.15        68.99682
772.56         68.7674
772.97        68.45233
773.39        68.18909
773.80        68.06377
774.22        68.10184
774.63        68.32906
775.05        68.59857
775.46        68.73958
775.88        68.67348
776.29        68.48489
776.70        68.26472
777.12        68.17957
777.53        68.28316
777.95        68.48038
778.36        68.71941
778.77        68.87608
779.19        68.92727
779.60        68.92989
780.02        68.87818
780.43        68.82502
780.84        68.80792
781.26        68.57761
781.67        68.28056
782.09        68.64709
782.50        69.46265
782.91        69.50787
783.33        68.83166
783.74        68.59533
784.15        68.84248
784.57        68.89201
784.98        68.76886
785.39        68.81628
785.81        69.04146
786.22        69.35878
786.63        69.67464
787.04         69.8291
787.46        69.80541
787.87        69.64339
788.28        69.43903
788.70        69.31789
789.11        69.29012
789.52        69.33927
789.93        69.42668
790.35        69.47939
790.76        69.49176
791.17        69.48554
791.58        69.47134
792.00        69.44027
792.41        69.41576
792.82        69.39974
793.23        69.40525
793.65        69.42424
794.06        69.48334
794.47        69.67258
794.88        69.91968
795.29        70.02765
795.71        69.94387
796.12        69.78653
796.53        69.63235
796.94        69.59795
797.35        69.71861
797.76        69.96428
798.18        70.21484
798.59        70.32279
799.00        70.22811
799.41        69.98598
799.82        69.70627
800.23        69.57105
800.64        69.62277
801.06        69.77062
801.47        69.97833
801.88        70.08503
802.29        70.04774
802.70         69.9324
803.11         69.7623
803.52        69.57076
803.93        69.38826
804.34        69.19373
804.75        69.07806
805.17        69.17715
805.58        69.53237
805.99        70.08186
806.40        70.63642
806.81        70.87432
807.22        70.71425
807.63        70.24441
808.04        69.66528
808.45        69.30347
808.86         69.2604
809.27        69.46601
809.68        69.78866
810.09        69.98875
810.50        69.99228
810.91        69.87038
811.32        69.75649
811.73        69.86155
812.14        70.22477
812.55        70.75874
812.96        71.28869
813.37        71.50283
813.78        71.31541
814.19        70.85536
814.60        70.28986
815.01         69.8391
815.42        69.56374
815.83        69.39456
816.24        69.33953
816.65        69.41032
817.05        69.59674
817.46        69.88273
817.87        70.17889
818.28        70.28985
818.69        70.18098
819.10        69.87577
819.51        69.54869
819.92        69.52727
820.33        69.88406
820.74        70.51109
821.14        71.17097
821.55        71.47878
821.96        71.34367
822.37        70.88351
822.78        70.29675
823.19        69.92184
823.60        69.87047
824.00        70.06963
824.41        70.35223
824.82        70.53886
825.23        70.55482
825.64        70.47459
826.04        70.36208
826.45        70.27047
826.86        70.23912
827.27        70.23667
827.68        70.25025
828.08        70.29609
828.49        70.31763
828.90        70.33751
829.31        70.36469
829.72        70.40946
830.12        70.49437
830.53        70.55471
830.94        70.56369
831.35        70.43599
831.75        70.17946
832.16        69.80879
832.57        69.43092
832.97        69.18546
833.38        69.11315
833.79        69.16385
834.20        69.30012
834.60        69.45555
835.01        69.60328
835.42        69.79507
835.82         69.9994
836.23        70.08399
836.64        70.05566
837.04        69.90861
837.45        69.79833
837.86        70.04695
838.26        70.72232
838.67        71.68471
839.08         72.6002
839.48        72.83233
839.89        72.23167
840.29         71.0418
840.70        69.80829
841.11        69.13448
841.51        69.18237
841.92        69.75668
842.33        70.63602
842.73        71.41917
843.14        71.82987
843.54        72.01558
843.95        72.06584
844.35        72.18884
844.76         72.4132
845.17        72.65221
845.57        72.78114
845.98        72.58932
846.38        72.07601
846.79        71.33308
847.19         70.5751
847.60        70.10411
848.00        70.01438
848.41        70.20367
848.81        70.54165
849.22         70.7169
849.62        70.67915
850.03        70.49777
850.43        70.29004
850.84        70.17943
851.24         70.2515
851.65        70.38574
852.05         70.6252
852.46        70.93193
852.86        71.27073
853.27        71.65149
853.67        71.91928
854.07        71.97599
854.48        71.79077
854.88        71.41523
855.29        70.93855
855.69        70.67031
856.10        70.62824
856.50        70.81188
856.90        71.05357
857.31        71.08418
857.71        70.88781
858.12        70.48701
858.52        70.04758
858.92        69.73061
859.33        69.58056
859.73        69.58747
860.13        69.65575
860.54        69.65257
860.94        69.57545
861.34        69.44606
861.75        69.31067
862.15        69.28498
862.55        69.36846
862.96        69.48318
863.36         69.6021
863.76        69.60275
864.17        69.44701
864.57        69.21675
864.97        68.91494
865.38        68.54844
865.78        68.17197
866.18        67.78572
866.58        67.49809
866.99        67.49462
867.39        67.82141
867.79        68.39259
868.19        69.04897
868.60        69.52397
869.00        69.77638
869.40        69.85411
869.80        69.80624
870.21        69.74175
870.61        69.77319
871.01        69.81189
871.41        69.84086
871.81        69.84433
872.22        69.80573
872.62        69.73234
873.02        69.65001
873.42        69.57944
873.82        69.52157
874.22        69.47176
874.63        69.36761
875.03        69.13384
875.43         68.7578
875.83        68.28308
876.23        67.83091
876.63        67.57919
877.03        67.57534
877.44        67.75627
877.84        68.03374
878.24        68.26102
878.64        68.33623
879.04        68.14751
879.44         67.8797
879.84        67.92319
880.24        68.30538
880.64        68.87709
881.04        69.32137
881.44        69.14896
881.84        68.29174
882.24        66.95619
882.65        65.60811
883.05         64.9551
883.45        65.17513
883.85        66.06783
884.25        67.27758
884.65        68.18198
885.05        68.56203
885.45        68.57697
885.85        68.41928
886.25        68.39627
886.65        68.59242
887.05        68.88241
887.45        69.14449
887.85        69.20511
888.25        69.02192
888.65        68.68577
889.04        68.30638
889.44        68.06022
889.84        67.98007
890.24        68.01057
890.64        68.08134
891.04        68.08249
891.44        67.98027
891.84        67.81953
892.24        67.63435
892.64        67.46229
893.04        67.33371
893.44        67.26216
893.83        67.26949
894.23        67.33859
894.63         67.4848
895.03        67.67651
895.43        67.95571
895.83        68.39806
896.23        68.96063
896.63        69.56161
897.02        69.99165
897.42        69.95512
897.82        69.41604
898.22          68.541
898.62        67.52476
899.01        66.64186
899.41        66.02666
899.81        65.61113
900.21        65.47533
900.61        65.73506
901.00        66.35447
901.40        67.26453
901.80        68.21206
902.20         68.7793
902.59        68.87275
902.99        68.59441
903.39        68.10992
903.79          67.722
904.18        67.52821
904.58         67.4293
904.98        67.46841
905.38        67.71774
905.77        68.15665
906.17        68.81145
906.57        69.41077
906.96        69.48604
907.36        68.94683
907.76        67.94255
908.15        66.94372
908.55         66.6864
908.95        67.33675
909.34        68.68031
909.74        70.18441
910.14        71.04441
910.53        70.99133
910.93         70.2796
911.33        69.24835
911.72        68.41543
912.12        68.01301
912.52        67.89508
912.91        67.90253
913.31        67.82094
913.70        67.60255
914.10        67.31316
914.49        67.18262
914.89        67.48394
915.29        68.27214
915.68         69.4238
916.08        70.52935
916.47        70.99411
916.87         70.6944
917.26        69.80428
917.66        68.77731
918.05        68.15268
918.45        68.07399
918.84        68.42117
919.24        68.92971
919.64        69.26789
920.03        69.33264
920.42        69.21442
920.82        69.08569
921.21        69.14558
921.61        69.42331
922.00        69.86025
922.40        70.29102
922.79        70.59611
923.19        70.68243
923.58        70.60844
923.98        70.44324
924.37        70.22051
924.77        69.98856
925.16        69.70769
925.55        69.41591
925.95        69.16425
926.34        68.99071
926.74        68.87619
927.13         68.7698
927.52        68.50904
927.92        68.12617
928.31        67.67994
928.70        67.30025
929.10         67.1519
929.49        67.25512
929.89        67.48421
930.28        67.89748
930.67        68.47974
931.07        69.14567
931.46        69.95985
931.85        70.58061
932.24        70.51358
932.64        69.74817
933.03        68.41827
933.42        67.12221
933.82        66.73353
934.21        67.41696
934.60        68.96651
934.99        70.77715
935.39        71.73902
935.78        71.56467
936.17        70.48666
936.56        69.08341
936.96        68.26877
937.35         68.2877
937.74         68.8606
938.13        69.53382
938.53        69.62366
938.92        68.97865
939.31        67.88399
939.70        66.74773
940.09        66.11944
940.49        66.09953
940.88        66.54235
941.27        67.19731
941.66        67.61517
942.05        67.65604
942.44        67.48743
942.84         67.3008
943.23        67.37782
943.62        67.78979
944.01        68.37032
944.40        69.03358
944.79        69.67814
945.18        70.21062
945.57        70.64145
945.97         70.7744
946.36        70.39538
946.75        69.48311
947.14        68.21928
947.53        66.91596
947.92        65.99629
948.31        65.58425
948.70           65.59
949.09        65.96397
949.48        66.59232
949.87         67.3721
950.26        68.28007
950.65        69.17204
951.04         69.8241
951.43        70.14785
951.82        70.15111
952.21        69.87498
952.60        69.42815
952.99        68.91563
953.38        68.39761
953.77         67.9684
954.16        67.76066
954.55        67.79388
954.94        67.98739
955.33        68.38433
955.72        69.02664
956.11        69.84735
956.50        70.82981
956.89        71.53088
957.28        71.24004
957.66        69.87744
958.05        67.75267
958.44        65.63353
958.83        64.62019
959.22        64.91441
959.61        66.22231
960.00        67.91757
960.39        68.80617
960.78        68.50187
961.16        67.37411
961.55        66.01496
961.94        65.19263
962.33        65.12714
962.72        65.61132
963.11        66.36938
963.49        66.93182
963.88        67.02792
964.27        66.79441
964.66        66.58607
965.04        66.94791
965.43        67.92243
965.82          69.403
966.21         70.7487
966.60        70.77206
966.98        69.21436
967.37        66.62959
967.76        64.07352
968.15        62.85633
968.53        63.20895
968.92        64.81017
969.31          66.941
969.69        68.13699
970.08        67.80877
970.47        66.42164
970.86        64.87077
971.24         64.4264
971.63        65.35548
972.02          67.286
972.40        69.47874
972.79        70.22901
973.17        69.12274
973.56        66.82497
973.95        64.35086
974.33        62.97344
974.72        62.96368
975.11        63.90768
975.49        65.37463
975.88        66.46062
976.26        66.83531
976.65        66.71785
977.04        66.31174
977.42        65.88885
977.81        65.53269
978.19        65.11414
978.58        64.75156
978.96        64.64001
979.35         64.7774
979.74         65.1601
980.12        65.69717
980.51        65.95112
980.89        65.93904
981.28        65.77159
981.66        65.58633
982.05        65.55846
982.43        65.76826
982.82        66.11714
983.20        66.79869
983.59        68.04512
983.97        69.89293
984.35        72.17194
984.74         74.2366
985.12          75.265
985.51        74.97466
985.89        73.64866
986.28        71.92056
986.66        70.67441
987.04        70.23563
987.43        70.34921
987.81        70.81526
988.20        71.09405
988.58        71.00815
988.96        70.64716
989.35         70.1566
989.73        69.69958
990.12        69.29519
990.50        68.91376
990.88        68.30889
991.27         67.1523
991.65        65.50398
992.03        63.58741
992.42        61.98242
992.80        61.40179
993.18        61.98223
993.56         63.5643
993.95        65.53982
994.33         66.8846
994.71        67.09853
995.10        66.52097
995.48        65.70326
995.86        65.61952
996.24        66.49493
996.63        67.86314
997.01          69.479
997.39        70.48478
997.77        70.49691
998.15        69.92736
998.54         68.8243
998.92        67.08482
999.30        64.97812
999.68        62.62558
1000.06        60.80705
1000.45        60.59972
1000.83        62.27488
1001.21        65.67396
1001.59        69.97614
1001.97        73.02074
1002.35        73.85449
1002.73        73.00723
1003.12        71.55051
1003.50        70.88887
1003.88        71.49276
1004.26        72.78497
1004.64        74.50388
1005.02        76.07487
1005.40        77.08189
1005.78        77.85564
1006.16        77.87587
1006.54        76.26404
1006.92         73.1836
1007.30        69.09454
1007.69        65.34715
1008.07        63.66891
1008.45        64.56418
1008.83        67.64931
1009.21        72.03868
1009.59        75.34889
1009.97         76.2552
1010.35         75.2944
1010.73         73.0516
1011.11        70.49851
1011.49        68.15181
1011.86        65.82274
1012.24        63.86482
1012.62        62.68722
1013.00         62.2951
1013.38        62.67928
1013.76        63.60267
1014.14         64.3302
1014.52        64.51777
1014.90        64.32158
1015.28         63.9583
1015.66        63.81499
1016.04        63.97955
1016.41        64.25838
1016.79        64.62544
1017.17        65.10312
1017.55        65.64571
1017.93        66.32413
1018.31        66.91105
1018.69        67.05511
1019.06         66.7468
1019.44        65.97798
1019.82        65.19847
1020.20        65.43452
1020.58        66.80296
1020.95        68.61709
1021.33        70.19988
1021.71        70.63512
1022.09        69.86761
1022.46        68.46135
1022.84         66.2017
1023.22        63.19051
1023.60        60.08881
1023.97         56.8828
1024.35        55.35911
1024.73        57.55267
