SpectraSmart Spectrum 2.9.0.0
--------- Device Information -----------
Spectrum Name :  反射率_0
Saving Time :  2024/04/26 23:21:25
Spectro-Module Model Name : SE2030-DUVN
Spectro-Module Serial Number : OS361AC55029948
Wavelength Start : 200
Wavelength End : 1025
Wavelength Unit : Wavelength(nm)
Spectrum Unit : Reflectance(%)
-----------Spectrum Setting ------------
Integration Time : 20ms
Average : 10
Boxcar : 0
Background removal :  enabled
linearity correction :  enabled
SC :  disabled
Intensity correction :  disabled
DWT denoise :  enabled
savitzky-golay :  disabled
FFT :  disabled
Running average :  disabled
Kalman :  disabled
High pass :  disabled
---------------BEGIN--------------------
Wavelength(nm)             Reflectance(%)
200.29               0
200.75        40.18371
201.21         38.8629
201.67        39.08718
202.13         40.7393
202.58        43.71849
203.04        49.07119
203.50        56.46235
203.96         62.7983
204.42        65.53254
204.88        64.01908
205.34        60.14647
205.80        58.94805
206.26        61.37753
206.72        65.07925
207.18        67.83117
207.64        67.61781
208.10        64.15187
208.55         57.9876
209.01         48.3946
209.47        40.28765
209.93        38.88533
210.39        41.91539
210.85        46.09524
211.31        50.35068
211.77        55.92883
212.23        66.45712
212.69        92.55361
213.14        143.1855
213.60        152.6343
214.06        125.7873
214.52        102.9112
214.98        88.42351
215.44        77.05556
215.90        65.12337
216.36        54.55793
216.81        49.36262
217.27        51.14023
217.73        60.85975
218.19        76.59273
218.65        83.41154
219.11        75.26801
219.57        61.99218
220.02        52.74784
220.48        52.01142
220.94        58.86908
221.40        73.37737
221.86        94.88306
222.32        109.0915
222.77        103.4141
223.23        87.63062
223.69         71.8472
224.15        61.52882
224.61        55.87239
225.06        52.33304
225.52        50.45317
225.98        49.65019
226.44         49.5491
226.90        50.24794
227.36        51.11949
227.81        51.04567
228.27        49.94875
228.73        48.02142
229.19        46.13763
229.65        45.30908
230.10        45.53785
230.56        46.57789
231.02        47.45227
231.48        46.68649
231.93         44.2201
232.39        40.99262
232.85        38.27871
233.31        37.73812
233.77        39.43963
234.22         42.7728
234.68        46.56217
235.14        49.05897
235.60        49.73645
236.05         49.0568
236.51        47.67244
236.97        47.01995
237.43        47.72647
237.88        49.43238
238.34           51.62
238.80        53.74612
239.26        55.70737
239.71        58.14038
240.17        61.12468
240.63        64.96606
241.08        69.77213
241.54        74.81359
242.00        80.30785
242.46        87.47514
242.91        98.19094
243.37        113.6333
243.83         135.141
244.28        156.4411
244.74         164.251
245.20         155.522
245.66        139.6705
246.11        126.6869
246.57        118.0886
247.03        111.3618
247.48        104.3127
247.94        95.20038
248.40        86.45103
248.85        79.94024
249.31        75.99958
249.77        73.53143
250.22        71.65826
250.68        69.71497
251.14        68.33579
251.59        69.48489
252.05        73.73973
252.51        80.09494
252.96        84.48612
253.42        84.02989
253.88        79.65539
254.33        72.85108
254.79        68.15625
255.25        69.20411
255.70        75.34378
256.16        84.88612
256.62        93.01627
257.07        92.72735
257.53        86.02908
257.99        77.43784
258.44        70.51588
258.90        68.29155
259.35        69.29179
259.81        72.12427
260.27        74.78933
260.72        74.94221
261.18        72.85934
261.63         69.4536
262.09        66.29564
262.55        64.37949
263.00        63.58713
263.46        63.56485
263.91        63.46573
264.37        62.62271
264.83        60.96825
265.28        58.83727
265.74        56.95426
266.19        55.86041
266.65        55.65451
267.11         55.9464
267.56        56.28502
268.02        55.98741
268.47        54.88409
268.93        53.27839
269.38        51.39971
269.84        49.65329
270.30        48.17231
270.75        46.83358
271.21        45.72563
271.66        44.91358
272.12        44.37236
272.57        44.05936
273.03        43.76559
273.48        43.12655
273.94        42.12983
274.39        40.84962
274.85        39.56295
275.31        38.51465
275.76        37.73568
276.22        37.18283
276.67        36.70974
277.13        36.20962
277.58        35.59688
278.04        34.94363
278.49        34.26201
278.95        33.68771
279.40        33.18484
279.86         32.7788
280.31        32.33067
280.77        31.76196
281.22        31.03506
281.68        30.26313
282.13         29.5435
282.59        29.09234
283.04        28.90093
283.50        28.92389
283.95        29.02154
284.41        28.98793
284.86        28.77217
285.32        28.46528
285.77         28.1701
286.22         28.0949
286.68        28.26695
287.13        28.57162
287.59        28.90048
288.04        29.04616
288.50        28.98463
288.95        28.75521
289.41        28.46975
289.86        28.21946
290.32        28.07777
290.77        28.01293
291.22        28.01467
291.68        28.04904
292.13        28.11497
292.59        28.26729
293.04        28.57175
293.50        29.14161
293.95          29.979
294.40         31.0369
294.86        32.23117
295.31        33.42114
295.77        34.57153
296.22        35.70546
296.68        36.85613
297.13        38.06572
297.58        39.36096
298.04        40.71998
298.49        42.15494
298.95        43.70952
299.40        45.36005
299.85        47.09007
300.31        48.83339
300.76        50.46294
301.21        51.97052
301.67        53.42281
302.12        54.85422
302.58        56.40422
303.03        58.06263
303.48        59.81047
303.94          61.657
304.39        63.55227
304.84        65.49856
305.30        67.51454
305.75        69.50663
306.20         71.4156
306.66        73.24447
307.11        74.97699
307.57        76.67832
308.02           78.35
308.47        80.02289
308.93        81.68431
309.38        83.33341
309.83        85.08524
310.29        86.94984
310.74        88.89316
311.19        90.75681
311.65        92.24925
312.10        93.29176
312.55        93.96287
313.00        94.51676
313.46         95.3614
313.91        96.56738
314.36        98.05045
314.82         99.5682
315.27        100.7315
315.72        101.4178
316.18        101.7757
316.63        101.9964
317.08        102.4307
317.53        103.1712
317.99        104.0925
318.44        105.0531
318.89        105.7947
319.35        106.2365
319.80        106.4695
320.25        106.6008
320.70        106.7979
321.16        107.1133
321.61         107.537
322.06        107.9865
322.51        108.3419
322.97         108.556
323.42        108.6674
323.87        108.8063
324.32        109.2021
324.78        109.8539
325.23        110.7718
325.68        111.6311
326.13        111.9074
326.59        111.4987
327.04        110.6045
327.49        109.6633
327.94         109.399
328.39        109.9813
328.85        111.1636
329.30         112.661
329.75         113.681
330.20        113.9566
330.66        113.6824
331.11        113.2018
331.56        112.9942
332.01        113.2252
332.46        113.7168
332.92        114.2802
333.37        114.7801
333.82        115.0828
334.27        115.3135
334.72        115.5062
335.17        115.6788
335.63        115.8577
336.08        116.0864
336.53        116.4468
336.98        117.1354
337.43        118.1663
337.88        119.4369
338.34        120.7621
338.79        121.9547
339.24        122.8501
339.69        123.4947
340.14         123.824
340.59        123.7645
341.05        123.4027
341.50        122.7992
341.95        122.2378
342.40         122.145
342.85        122.6169
343.30        123.5345
343.75        124.6922
344.20        125.7217
344.66        126.4795
345.11        127.0416
345.56         127.409
346.01         127.605
346.46        127.6801
346.91        127.6353
347.36        127.5636
347.81        127.6374
348.26        127.8819
348.72        128.2316
349.17         128.644
349.62        129.0744
350.07          129.48
350.52         129.904
350.97        130.1486
351.42        129.9043
351.87        129.1657
352.32        128.0393
352.77        126.9657
353.22        126.5962
353.67        127.0302
354.13        128.0682
354.58        129.2216
355.03        129.6178
355.48        129.0396
355.93        127.7576
356.38        126.2895
356.83        125.4191
357.28        125.3114
357.73        125.6886
358.18         126.148
358.63        126.0488
359.08        125.2245
359.53        123.9235
359.98        122.4314
360.43         121.141
360.88        120.1673
361.33        119.3821
361.78        118.6799
362.23        117.9142
362.68        117.0465
363.13        116.1493
363.58        115.2772
364.03        114.4865
364.48        113.7776
364.93        113.1035
365.38        112.4118
365.83        111.6415
366.28        110.7847
366.73         109.875
367.18        108.9475
367.63        108.0496
368.08        107.1982
368.53        106.3828
368.98        105.6087
369.43        104.8774
369.88        104.1856
370.33        103.5396
370.78        102.9109
371.23        102.2576
371.68        101.5711
372.13        100.8467
372.58        100.1388
373.03        99.53608
373.48        99.03787
373.93        98.60458
374.38        98.12223
374.83        97.41746
375.28          96.469
375.72        95.33289
376.17        94.19855
376.62        93.23048
377.07        92.49154
377.52        91.95656
377.97        91.55881
378.42        91.19923
378.87          90.838
379.32        90.46175
379.77        90.15611
380.22        90.04599
380.67        90.11484
381.11        90.33785
381.56        90.39762
382.01        89.88293
382.46        88.77283
382.91        87.28458
383.36        85.84145
383.81        85.01399
384.26         84.8858
384.71        85.25669
385.15        85.84853
385.60        86.16932
386.05        86.05246
386.50        85.63121
386.95        84.99361
387.40        84.28635
387.85        83.59618
388.29        82.84669
388.74         82.1846
389.19        81.60365
389.64        81.10462
390.09        80.68533
390.54        80.35677
390.98        80.10557
391.43        79.95654
391.88        79.88335
392.33        79.81863
392.78        79.64853
393.23        79.35654
393.67        78.99555
394.12        78.69186
394.57        78.35245
395.02        78.05045
395.47        78.03091
395.91        78.21272
396.36        78.15958
396.81        77.85915
397.26        77.55151
397.71         77.2491
398.15        76.92153
398.60        76.68085
399.05        76.26376
399.50        75.79869
399.95        75.93619
400.39        76.47941
400.84        76.25793
401.29        75.33074
401.74        74.78459
402.18        74.69778
402.63        74.42078
403.08         74.0118
403.53        73.83232
403.97        73.88605
404.42         74.0657
404.87        74.26182
405.32         74.2953
405.76        74.11951
406.21        73.83393
406.66        73.49601
407.11        73.24829
407.55        73.16469
408.00        73.03113
408.45        72.87938
408.90        73.11651
409.34        73.53206
409.79        73.25318
410.24        72.45398
410.68        72.10159
411.13        72.25694
411.58        72.39082
412.03        72.37739
412.47        72.25916
412.92        71.99142
413.37        71.61404
413.81        71.24869
414.26        71.13717
414.71        71.29006
415.15        71.66458
415.60        72.11771
416.05        72.47077
416.49        72.65295
416.94        72.69961
417.39        72.65465
417.83        72.57938
418.28        72.50557
418.73         72.4035
419.17        72.30309
419.62        72.26186
420.07        72.28679
420.51        72.35829
420.96        72.45097
421.41        72.46294
421.85        72.36267
422.30        72.23559
422.74        72.07609
423.19         72.0442
423.64        72.09408
424.08        72.07156
424.53        72.01082
424.98        72.10162
425.42        72.34364
425.87        72.77866
426.31        73.21687
426.76        72.93071
427.21        72.10397
427.65        71.84808
428.10        72.16785
428.54        72.30988
428.99        72.32172
429.44        72.28758
429.88          72.343
430.33        73.21857
430.77        74.43531
431.22        74.64617
431.66        73.89179
432.11         73.1768
432.56        72.79202
433.00        72.88123
433.45        73.56976
433.89        74.23048
434.34        74.10164
434.78        75.66927
435.23        74.37177
435.67        72.17957
436.12        73.10725
436.57        73.27447
437.01        73.91604
437.46        74.16941
437.90        73.84009
438.35        73.42129
438.79        73.29524
439.24        73.26501
439.68        73.40247
440.13         73.9072
440.57        74.63254
441.02        74.63634
441.46        74.06948
441.91        74.57507
442.35        75.72982
442.80        75.61255
443.24        74.45558
443.69        74.38996
444.13        75.34121
444.58        75.71793
445.02        75.47169
445.47        75.46868
445.91        75.73966
446.36        75.97778
446.80         76.1605
447.24        76.37307
447.69        76.59264
448.13        76.72443
448.58        76.80213
449.02        76.89311
449.47        76.97884
449.91        76.97845
450.36        76.87607
450.80        76.55291
451.25        76.15883
451.69         75.9933
452.13        76.10815
452.58        76.34552
453.02        76.60119
453.47        76.76409
453.91        76.77935
454.36        76.68823
454.80        76.51389
455.24        76.26691
455.69        75.98401
456.13        75.71377
456.58         75.5377
457.02        75.21871
457.46        74.91534
457.91        75.18284
458.35        75.74042
458.79        75.70745
459.24        75.08315
459.68        74.23954
460.13        73.50933
460.57        73.20554
461.01        73.46066
461.46        73.87678
461.90        74.37809
462.34        75.29237
462.79        74.65186
463.23        74.85545
463.68        75.18935
464.12        75.02869
464.56        74.36131
465.01        73.58681
465.45        72.90544
465.89        72.72606
466.34        72.94873
466.78        73.25971
467.22        73.54446
467.67        73.12336
468.11        72.63859
468.55         72.9114
468.99        73.27354
469.44         73.3577
469.88        72.92563
470.32        72.55424
470.77        72.34221
471.21        72.20586
471.65        72.16902
472.10        72.25579
472.54        72.38638
472.98        72.41067
473.42        72.28691
473.87        72.17127
474.31        72.03977
474.75        71.68497
475.20        71.24599
475.64         71.2636
476.08        71.68849
476.52        71.71356
476.97        71.22585
477.41        71.44012
477.85        71.42574
478.29        70.92737
478.74        71.20248
479.18        71.89738
479.62         71.6692
480.06         71.7593
480.50        71.62648
480.95        71.50796
481.39        71.43901
481.83        70.95332
482.27        70.98968
482.72        71.29457
483.16        71.15096
483.60        71.26633
484.04        71.36517
484.48        71.53827
484.93        71.55936
485.37        71.38455
485.81        71.29079
486.25        70.31245
486.69        71.79369
487.14        72.97266
487.58        71.39445
488.02        71.07042
488.46        70.48379
488.90        70.38566
489.34        71.33451
489.79        71.99094
490.23        71.62895
490.67        71.11778
491.11        70.48112
491.55        70.28675
491.99        70.48939
492.43        70.39189
492.88        70.00295
493.32        69.87189
493.76        70.02766
494.20        70.16854
494.64        70.25787
495.08        70.46229
495.52        70.70049
495.96        70.62935
496.41        70.32282
496.85        70.31345
497.29        70.45749
497.73        70.54274
498.17        69.72543
498.61        69.54166
499.05        69.73129
499.49        69.91591
499.93        69.80589
500.37        69.85863
500.82        69.98441
501.26        70.07623
501.70        70.11224
502.14        70.10948
502.58          70.104
503.02        70.10811
503.46        70.21127
503.90        70.33525
504.34        70.43873
504.78        70.43186
505.22        70.29956
505.66        70.03242
506.10        69.74152
506.54        69.67426
506.98        69.77799
507.42        69.91252
507.86        69.76447
508.30        69.61276
508.74        69.80624
509.18        69.81719
509.62        69.76405
510.06        69.70975
510.50        69.66449
510.94        69.59836
511.38        69.53209
511.82        69.51369
512.26        69.54989
512.70        69.63254
513.14        69.73276
513.58        69.79836
514.02        69.81603
514.46        69.80009
514.90        69.77323
515.34        69.77311
515.78        69.80799
516.22        69.86145
516.66        69.91599
517.10        69.94533
517.54        69.94197
517.98        69.91811
518.42        69.87914
518.86        69.83203
519.30        69.78358
519.74        69.73303
520.18        69.69333
520.62        69.68363
521.06        69.70801
521.50        69.76443
521.93        69.83777
522.37        69.88062
522.81        69.88905
523.25        69.86555
523.69        69.83327
524.13        69.83128
524.57        69.86289
525.01        69.91167
525.45        69.93948
525.89        69.88589
526.32        69.73611
526.76        69.53574
527.20        69.32497
527.64        69.17159
528.08        69.09563
528.52        69.07523
528.96        69.09858
529.40        69.14577
529.83        69.20041
530.27        69.27388
530.71        69.33556
531.15        69.34523
531.59        69.29726
532.03        69.19695
532.46        69.07104
532.90        69.01208
533.34        69.02506
533.78        69.05164
534.22        69.05763
534.66        69.06845
535.09        69.02673
535.53        68.80541
535.97        68.46782
536.41        68.28076
536.85        68.27552
537.28        68.31945
537.72        68.39476
538.16        68.52064
538.60        68.67468
539.04        68.84801
539.47        68.98589
539.91        69.04948
540.35        69.01801
540.79        68.90823
541.22        68.76701
541.66        68.69609
542.10           68.71
542.54        68.77938
542.97        68.85547
543.41        68.89268
543.85        68.86658
544.29        68.80763
544.72        68.71947
545.16        68.64693
545.60        68.59477
546.04         68.5613
546.47        68.56877
546.91        68.66679
547.35        68.85186
547.79        69.04603
548.22        69.20943
548.66        69.40242
549.10        69.61475
549.53        69.52055
549.97        69.19962
550.41         68.9126
550.84        68.78023
551.28        68.78643
551.72        68.84487
552.15        68.95644
552.59        69.18348
553.03        68.52404
553.46        69.04858
553.90        68.96564
554.34         68.8805
554.77        68.79258
555.21        68.75263
555.65        68.78795
556.08        68.86992
556.52        68.95327
556.96        68.99872
557.39        69.09591
557.83        69.17954
558.27        69.00064
558.70        68.49168
559.14        68.26336
559.57        68.29948
560.01        68.33502
560.45        68.36942
560.88        68.60786
561.32        68.97117
561.75         69.1414
562.19        69.11375
562.63        68.90553
563.06        68.64227
563.50        68.70633
563.93        68.97455
564.37        69.07702
564.80        69.00117
565.24        68.78721
565.68        68.36256
566.11        69.03554
566.55        68.34634
566.98         68.2875
567.42        68.21272
567.85        68.33881
568.29        68.66711
568.72         68.9049
569.16        69.20477
569.60        69.60186
570.03        69.43298
570.47        69.65088
570.90         70.1384
571.34        69.13358
571.77        69.68542
572.21        70.21114
572.64        69.82912
573.08         70.6357
573.51        69.45606
573.95        69.34081
574.38        69.64889
574.82        70.05663
575.25        69.62544
575.69        69.83666
576.12        69.93546
576.56        69.23277
576.99        69.28536
577.42         69.5414
577.86        69.61407
578.29        70.33566
578.73        70.40521
579.16         70.2376
579.60        69.58062
580.03        69.50561
580.47        69.34293
580.90        70.30006
581.33        70.17307
581.77        70.41075
582.20        70.22284
582.64        70.88291
583.07         70.3424
583.51         70.0043
583.94        69.59316
584.37        69.53636
584.81         69.8866
585.24        69.99693
585.68        69.86579
586.11        69.61106
586.54        70.12149
586.98        69.24564
587.41        68.74877
587.85        69.40549
588.28        69.50801
588.71        69.44107
589.15        69.16479
589.58        69.46069
590.01        68.94286
590.45        69.04026
590.88        69.73771
591.31        69.56092
591.75        68.82592
592.18        68.49789
592.61        68.73036
593.05        69.40469
593.48        70.09236
593.91        69.90024
594.35        69.80403
594.78        69.15057
595.21        68.47177
595.65        68.91138
596.08        70.09901
596.51        70.13936
596.94        69.27956
597.38        68.94357
597.81        69.27942
598.24        69.43226
598.68        69.30238
599.11        68.98792
599.54           69.77
599.97        69.92425
600.41        69.54325
600.84        69.08508
601.27        69.46868
601.70        69.47605
602.14        69.40527
602.57         69.1694
603.00        69.04346
603.43        68.31088
603.87        69.19496
604.30        69.44993
604.73        69.71095
605.16        69.11981
605.60        69.00276
606.03        68.63963
606.46        68.59291
606.89         68.8065
607.32        69.17448
607.76        68.93448
608.19        69.20547
608.62        69.04361
609.05        68.90306
609.48        68.90749
609.92        69.96003
610.35        69.52245
610.78        68.60289
611.21        69.06012
611.64        68.71864
612.07         69.1087
612.50        69.12128
612.94         69.0542
613.37        68.67119
613.80        69.18613
614.23        68.06641
614.66        68.20168
615.09        68.75475
615.52        68.98132
615.96        68.77469
616.39        68.83357
616.82         69.2429
617.25        68.55598
617.68        68.74795
618.11        68.65602
618.54        68.79927
618.97        68.87949
619.40        68.94466
619.84        68.53499
620.27        68.74987
620.70        68.74219
621.13        68.76157
621.56        68.27226
621.99        67.44289
622.42        67.32908
622.85        67.91611
623.28        67.87714
623.71        67.72219
624.14        68.04327
624.57        68.17226
625.00        68.19863
625.43        68.31591
625.86        68.29715
626.29        68.27671
626.72        68.00816
627.15        68.18228
627.58        68.02227
628.01        67.64425
628.44         68.1245
628.87        67.83815
629.30        67.67012
629.73         67.6638
630.16        67.96542
630.59        67.76527
631.02        67.83119
631.45        67.89878
631.88        67.97387
632.31         68.0395
632.74        68.10303
633.17        68.14351
633.60        68.10614
634.03        67.98996
634.46         67.8114
634.89        67.60764
635.32        67.45475
635.75         67.3802
636.18        67.29477
636.61        67.22372
637.04        67.24799
637.47        67.36478
637.89        67.54125
638.32        67.69856
638.75        67.77188
639.18        67.73954
639.61           67.62
640.04        67.46877
640.47        67.37813
640.90        67.37459
641.33          67.437
641.76        67.52879
642.18        67.59565
642.61        67.59846
643.04        67.56326
643.47        67.52285
643.90        67.52757
644.33        67.58547
644.76         67.6782
645.18        67.76121
645.61        67.74567
646.04        67.62601
646.47        67.43828
646.90         67.2469
647.33        67.13953
647.75        67.10872
648.18        67.19453
648.61        67.38641
649.04        67.37263
649.47        67.07355
649.89        67.67779
650.32        67.36343
650.75        67.22614
651.18        66.88294
651.61        67.01717
652.03        67.58562
652.46        67.93806
652.89        67.95172
653.32        68.00868
653.74        67.95533
654.17         67.6372
654.60         67.9554
655.03         68.2677
655.46        67.13472
655.88         67.0052
656.31        69.36887
656.74        71.67075
657.16        72.34586
657.59        72.95151
658.02        68.85781
658.45         69.0555
658.87        68.26237
659.30        68.18861
659.73        67.69119
660.15        68.78185
660.58        67.74396
661.01        67.72626
661.44        67.66757
661.86         67.3489
662.29        66.77916
662.72        67.09193
663.14        66.99811
663.57        66.99983
664.00        66.80659
664.42         66.9299
664.85        67.37138
665.27        67.85589
665.70        68.20496
666.13        68.31987
666.55        68.16721
666.98        67.70456
667.41        67.07712
667.83        66.96655
668.26        66.74534
668.69        66.90222
669.11        67.15965
669.54        67.39792
669.96        67.57296
670.39        67.72288
670.82        67.84241
671.24         67.9096
671.67         67.9266
672.09        67.81089
672.52        67.64641
672.94        67.67548
673.37        67.85304
673.80        67.82037
674.22        67.59928
674.65        67.48336
675.07        67.50314
675.50        67.46621
675.92          67.382
676.35         67.3259
676.77        67.30033
677.20        67.30864
677.62        67.36118
678.05        67.31322
678.47        67.41552
678.90        67.46725
679.32          67.524
679.75        67.55896
680.17        67.56648
680.60        67.55181
681.02         67.5354
681.45        67.56348
681.87        67.65759
682.30        67.75951
682.72        67.85818
683.15        67.97946
683.57        68.08456
684.00        67.97696
684.42        67.74805
684.85        67.72649
685.27        67.93006
685.70        68.20478
686.12        68.44299
686.54        68.55302
686.97        68.49693
687.39        68.30161
687.82        68.05447
688.24        67.86665
688.66        67.78208
689.09        67.76867
689.51        67.80495
689.94        67.82095
690.36        67.80566
690.78        67.76852
691.21        67.74718
691.63        67.78771
692.06        67.89733
692.48        68.06387
692.90        68.21061
693.33        68.21745
693.75        68.06064
694.17        67.76948
694.60         67.4739
695.02        67.33656
695.44        67.39303
695.87         67.7238
696.29        68.16725
696.71        68.08543
697.14        67.57301
697.56        67.42352
697.98         67.6679
698.41        67.74852
698.83        67.65511
699.25        67.76239
699.68        67.99112
700.10        68.09231
700.52        68.01534
700.94        67.84587
701.37        67.67133
701.79        67.63818
702.21        67.77206
702.64         68.0065
703.06        68.26459
703.48        68.40702
703.90        68.39343
704.33        68.26741
704.75        68.08595
705.17        67.93153
705.59        67.84368
706.01         67.8027
706.44        67.80218
706.86        67.86559
707.28        67.97912
707.70        68.09441
708.12        68.21597
708.55        68.43861
708.97        68.70052
709.39        68.74004
709.81        68.57967
710.23         68.5116
710.66        68.55812
711.08        68.57567
711.50        68.51783
711.92        68.40485
712.34        68.24088
712.76        68.03861
713.19        67.85001
713.61        67.79711
714.03        67.88971
714.45        68.09809
714.87        68.37042
715.29         68.6267
715.71        68.83202
716.13        68.98756
716.56        69.07874
716.98        69.18161
717.40        69.26849
717.82        69.32529
718.24        69.31262
718.66        69.17097
719.08        68.91456
719.50        68.59697
719.92        68.30724
720.34        68.17219
720.76        68.21864
721.19        68.38117
721.61        68.64637
722.03        68.93622
722.45        69.20143
722.87        69.44902
723.29        69.60397
723.71        69.55228
724.13        69.28912
724.55        68.85387
724.97        68.38543
725.39        68.12109
725.81        68.12587
726.23        68.32028
726.65        68.59151
727.07        68.91599
727.49        68.99401
727.91        69.02583
728.33        69.00864
728.75        69.17685
729.17         69.4996
729.59        69.67289
730.01        69.67451
730.43        69.69717
730.85        69.73557
731.27        69.66997
731.69         69.5113
732.10        69.33562
732.52         69.1593
732.94        68.98602
733.36        68.85816
733.78         68.7095
734.20        68.53623
734.62         68.6063
735.04         68.9873
735.46        68.49503
735.88        69.14767
736.30        69.28895
736.72        69.50491
737.13        69.69524
737.55        69.79306
737.97        69.97857
738.39        70.14523
738.81        69.80252
739.23        69.12662
739.65        69.06838
740.06        69.56439
740.48        69.80315
740.90        69.73113
741.32        69.84043
741.74        70.12843
742.16        70.32333
742.57        70.39867
742.99        70.40649
743.41         70.3477
743.83        70.20905
744.25        70.00484
744.67        69.73152
745.08        69.47309
745.50        69.34503
745.92        69.37999
746.34        69.54054
746.75         69.7375
747.17        69.80914
747.59        69.73018
748.01        69.55149
748.42        69.34216
748.84        69.26509
749.26        69.36185
749.68        69.42463
750.09        69.43832
750.51        69.74471
750.93        70.14767
751.35        69.87238
751.76        69.06849
752.18        68.67019
752.60         68.7447
753.01        68.81087
753.43        68.78672
753.85        68.78334
754.27        68.78926
754.68         68.8039
755.10        68.84512
755.52        68.93372
755.93        69.05527
756.35        69.16302
756.77        69.30221
757.18        69.48962
757.60        69.73276
758.02        70.16679
758.43         70.5532
758.85         70.2926
759.26        69.76487
759.68        68.92151
760.10        69.09061
760.51        69.42513
760.93        70.19775
761.34         69.6189
761.76        70.16951
762.18        70.05747
762.59        70.14363
763.01        70.01873
763.42        70.43668
763.84        70.48479
764.26        70.35106
764.67        70.27956
765.09        70.28868
765.50        70.05344
765.92        69.68773
766.33        69.53697
766.75        69.53555
767.16        69.51762
767.58        69.43304
768.00        69.28127
768.41        69.19309
768.83        69.58283
769.24        70.25392
769.66        70.49572
770.07        70.27743
770.49        69.86498
770.90        69.50922
771.32        69.88746
771.73        70.80613
772.15        71.08368
772.56         70.6487
772.97        70.17126
773.39        69.84664
773.80        69.68906
774.22        69.73866
774.63        70.04264
775.05        70.41631
775.46        70.62727
775.88        70.57717
776.29        70.35756
776.70        70.08911
777.12        69.99542
777.53        70.13818
777.95        70.39474
778.36         70.6772
778.77        70.80399
779.19        70.74939
779.60        70.60596
780.02        70.39396
780.43        70.23692
780.84        70.20454
781.26        69.90942
781.67        69.52728
782.09        70.14277
782.50        71.45031
782.91        71.36141
783.33        70.57444
783.74        70.20916
784.15         70.5241
784.57        70.54509
784.98        70.31049
785.39        70.31649
785.81        70.57197
786.22        70.93959
786.63        71.32613
787.04        71.58234
787.46         71.6773
787.87        71.64072
788.28        71.52883
788.70        71.40523
789.11        71.27757
789.52        71.16072
789.93        71.06213
790.35        70.98553
790.76         70.9444
791.17        70.93346
791.58        70.96252
792.00         70.9736
792.41        70.96524
792.82        71.08306
793.23        71.26624
793.65        71.06449
794.06        70.65296
794.47        70.86301
794.88        71.53052
795.29        71.79786
795.71        71.47477
796.12        71.18699
796.53        71.02847
796.94        71.00095
797.35        71.15209
797.76        71.48236
798.18        71.85999
798.59        72.11611
799.00        72.17407
799.41        72.07795
799.82        71.91161
800.23        71.82455
800.64        71.85455
801.06        71.91903
801.47         72.0057
801.88        72.00465
802.29        71.88548
802.70        71.68718
803.11        71.45497
803.52        71.25462
803.93        71.13546
804.34        71.09676
804.75        71.12699
805.17         71.2866
805.58        71.61848
805.99        71.78075
806.40        71.82243
806.81        72.55528
807.22         73.6226
807.63        73.33842
808.04        71.95222
808.45        71.34675
808.86        71.68333
809.27        71.95885
809.68        72.01259
810.09        72.04829
810.50        72.01936
810.91        71.87518
811.32        71.74631
811.73        71.83713
812.14        72.17797
812.55        72.70598
812.96        73.23503
813.37        73.41444
813.78        73.15599
814.19        72.60375
814.60        71.95099
815.01        71.45251
815.42         71.1737
815.83        71.03481
816.24        71.02374
816.65        71.11234
817.05        71.27908
817.46        71.52361
817.87        71.77143
818.28        71.84908
818.69        71.72826
819.10        71.41853
819.51        71.10378
819.92        71.12883
820.33        71.56207
820.74        72.29115
821.14        73.03506
821.55        73.33704
821.96         73.0993
822.37        72.46732
822.78        71.70265
823.19        71.25215
823.60        71.25916
824.00        71.61718
824.41         72.1177
824.82         72.5091
825.23        72.67751
825.64        72.70766
826.04        72.64863
826.45        72.53177
826.86        72.40321
827.27         72.2439
827.68         72.0731
828.08        71.96799
828.49        71.89692
828.90        71.87222
829.31        71.91802
829.72        72.05988
830.12        72.31305
830.53        72.60897
830.94        72.85107
831.35        72.83118
831.75        72.52905
832.16        71.98822
832.57        71.40923
832.97        71.08833
833.38        71.10269
833.79        71.35202
834.20        71.72443
834.60        72.03441
835.01        72.22252
835.42        72.38346
835.82        72.51958
836.23        72.55252
836.64         72.5111
837.04        72.36174
837.45        72.26363
837.86        72.55223
838.26        73.29061
838.67        74.33922
839.08        75.31676
839.48        75.49992
839.89        74.72718
840.29        73.27558
840.70        71.76898
841.11        70.91312
841.51        70.88626
841.92        71.46155
842.33        72.36876
842.73        73.11759
843.14        73.40753
843.54        73.42977
843.95        73.31184
844.35        73.31734
844.76        73.49754
845.17        73.74791
845.57        73.95604
845.98        73.93004
846.38        73.65983
846.79        73.22406
847.19           72.78
847.60        72.54141
848.00        72.57298
848.41        72.77399
848.81        73.06335
849.22        73.21753
849.62          73.213
850.03        73.10919
850.43        72.95661
850.84        72.76078
851.24         72.5999
851.65        72.40244
852.05         72.3492
852.46        72.63496
852.86        73.25872
853.27        74.10886
853.67        74.87588
854.07        75.26575
854.48        75.19655
854.88        74.78973
855.29        74.12897
855.69        73.52749
856.10        73.04489
856.50        72.69617
856.90        72.45486
857.31        72.29053
857.71        72.23407
858.12        72.23792
858.52        72.31586
858.92        72.34802
859.33        72.28151
859.73        72.18966
860.13        72.00127
860.54        71.63943
860.94        71.16431
861.34        70.58825
861.75        70.09899
862.15         70.0462
862.55        70.46976
862.96        71.23406
863.36        72.12042
863.76        72.65575
864.17        72.67957
864.57        72.33982
864.97        71.76824
865.38         71.1951
865.78        70.74342
866.18        70.35354
866.58         70.0527
866.99        69.89256
867.39        69.90822
867.79        70.09975
868.19        70.42279
868.60        70.76064
869.00        71.09682
869.40        71.41034
869.80        71.67715
870.21        71.86183
870.61        72.00661
871.01        72.07038
871.41        72.00652
871.81        71.75556
872.22        71.32561
872.62        70.73972
873.02        70.19048
873.42        69.99462
873.82        70.21803
874.22        70.76521
874.63         71.3597
875.03         71.5735
875.43        71.29197
875.83        70.64974
876.23        69.89989
876.63        69.43449
877.03        69.36549
877.44        69.56243
877.84        69.87962
878.24        70.07535
878.64        70.02908
879.04        69.69108
879.44        69.28783
879.84        69.25236
880.24           69.62
880.64        70.21272
881.04        70.69556
881.44        70.55377
881.84        69.70593
882.24        68.37263
882.65        66.99784
883.05        66.25188
883.45        66.31919
883.85        67.01767
884.25        68.06223
884.65         68.9484
885.05        69.47955
885.45        69.77046
885.85        69.93772
886.25        70.17371
886.65        70.52825
887.05        70.90356
887.45        71.19165
887.85        71.25024
888.25        71.04488
888.65        70.63944
889.04        70.16534
889.44        69.83582
889.84        69.69384
890.24        69.70408
890.64        69.73732
891.04        69.57944
891.44        69.19907
891.84         68.6827
892.24        68.21001
892.64        68.03793
893.04        68.21739
893.44        68.67423
893.83        69.24892
894.23         69.6208
894.63        69.72388
895.03        69.62576
895.43        69.49329
895.83        69.61513
896.23        70.03109
896.63        70.59518
897.02        71.09939
897.42        71.24728
897.82        70.97086
898.22        70.43232
898.62        69.72904
899.01        68.98348
899.41        68.29844
899.81        67.63105
900.21        67.15367
900.61        67.14528
901.00        67.62111
901.40        68.48618
901.80         69.4109
902.20        69.84378
902.59        69.67653
902.99        69.07457
903.39        68.32117
903.79        67.90337
904.18        67.94292
904.58        68.24313
904.98        68.73057
905.38        69.30836
905.77        69.90467
906.17        70.60888
906.57        71.14163
906.96        71.02583
907.36        70.20489
907.76        68.83195
908.15        67.52079
908.55        67.24157
908.95        68.19076
909.34        70.07943
909.74        72.17403
910.14        73.31556
910.53        73.14017
910.93        72.02505
911.33         70.4473
911.72        69.14887
912.12          68.449
912.52        68.13052
912.91        68.06236
913.31        68.07484
913.70        68.10166
914.10        68.20871
914.49        68.48963
914.89        68.96603
915.29        69.63412
915.68        70.43076
916.08        71.11006
916.47        71.37565
916.87        71.17724
917.26        70.57924
917.66        69.91306
918.05        69.53979
918.45        69.55878
918.84        69.92722
919.24         70.3821
919.64        70.59568
920.03        70.48266
920.42        70.10217
920.82         69.7377
921.21        69.76749
921.61        70.24306
922.00        71.08421
922.40        71.90528
922.79        72.18935
923.19        71.77845
923.58        70.88475
923.98        69.91428
924.37        69.38711
924.77        69.44189
925.16        69.88252
925.55        70.48325
925.95        70.83143
926.34        70.80659
926.74        70.52249
927.13        70.08277
927.52        69.57627
927.92        69.12033
928.31        68.68466
928.70        68.35165
929.10        68.22564
929.49        68.30764
929.89        68.51601
930.28        68.92486
930.67         69.5233
931.07        70.23056
931.46        71.10098
931.85        71.79207
932.24        71.81512
932.64        71.15726
933.03        69.94898
933.42        68.77698
933.82        68.50034
934.21        69.28124
934.60        70.91235
934.99        72.80061
935.39        73.85789
935.78        73.79308
936.17        72.81757
936.56        71.47424
936.96        70.62586
937.35        70.50728
937.74        70.86182
938.13        71.26874
938.53        71.09481
938.92        70.22647
939.31         68.9673
939.70        67.72797
940.09         67.0535
940.49        67.04224
940.88        67.53795
941.27        68.32876
941.66         69.0267
942.05        69.47013
942.44        69.77557
942.84        69.99186
943.23         70.1909
943.62        70.40797
944.01        70.54784
944.40        70.67109
944.79        70.91927
945.18        71.28744
945.57         71.7383
945.97        72.02445
946.36        71.83059
946.75        71.07642
947.14        69.95196
947.53        68.76883
947.92        67.94957
948.31        67.61307
948.70        67.66306
949.09         67.9912
949.48        68.39967
949.87        68.78835
950.26         69.1735
950.65        69.56562
951.04        69.98988
951.43        70.41734
951.82        70.79046
952.21        70.97908
952.60        70.80473
952.99        70.28986
953.38        69.56944
953.77        68.86028
954.16        68.49147
954.55        68.54105
954.94        68.87517
955.33        69.45011
955.72        70.16241
956.11        70.90444
956.50        71.70724
956.89        72.23968
957.28        71.97021
957.66        70.84696
958.05         69.0991
958.44        67.34671
958.83        66.48788
959.22        66.68274
959.61        67.69846
960.00         69.0106
960.39        69.61995
960.78        69.21821
961.16        68.12244
961.55        66.84888
961.94        66.05712
962.33         65.9237
962.72        66.25233
963.11         66.8169
963.49        67.23492
963.88        67.27628
964.27        67.09377
964.66        66.91064
965.04        67.06921
965.43        67.58798
965.82        68.38804
966.21        69.15002
966.60        69.29429
966.98        68.64877
967.37        67.48064
967.76        66.27914
968.15        65.64904
968.53         65.7219
968.92        66.37333
969.31        67.23289
969.69        67.58018
970.08        67.12488
970.47        66.10487
970.86        65.14007
971.24        65.10605
971.63           66.16
972.02         68.0836
972.40        70.17807
972.79        70.79202
973.17        69.56395
973.56        67.10445
973.95        64.50529
974.33        63.17746
974.72        63.39362
975.11        64.70969
975.49        66.57167
975.88        67.80554
976.26        68.01645
976.65        67.54678
977.04        66.71553
977.42        65.97897
977.81        65.48446
978.19        65.00977
978.58        64.76936
978.96        65.11572
979.35        66.02947
979.74        67.48349
980.12        69.00162
980.51        69.44463
980.89        68.70807
981.28        67.15052
981.66        65.49548
982.05        64.77004
982.43        65.22443
982.82        66.52104
983.20        68.46397
983.59        70.51622
983.97        72.43153
984.35        74.28604
984.74        75.64542
985.12        76.06707
985.51        75.43468
985.89        73.87039
986.28          72.085
986.66        71.10897
987.04        71.25524
987.43         72.2851
987.81        73.68867
988.20        74.28196
988.58        73.72366
988.96        72.29245
989.35        70.63398
989.73        69.63451
990.12        69.49007
990.50        70.01775
990.88        70.61275
991.27        70.27254
991.65        68.81946
992.03        66.62035
992.42        64.66598
992.80        64.27077
993.18        65.67616
993.56        68.55808
993.95        71.74108
994.33        73.14523
994.71        72.01488
995.10        69.12862
995.48        65.88786
995.86         64.4297
996.24         65.2324
996.63        67.53734
997.01        70.63554
997.39        72.64505
997.77        72.76118
998.15        71.76747
998.54        69.97118
998.92        67.64988
999.30         65.2284
999.68        62.62412
1000.06         60.7833
1000.45        61.10319
1000.83        63.87442
1001.21        68.93707
1001.59        74.99661
1001.97        78.75629
1002.35         78.8605
1002.73        76.18317
1003.12        72.57011
1003.50        70.46127
1003.88        70.55149
1004.26        72.03062
1004.64        74.33667
1005.02        76.24266
1005.40        77.10535
1005.78        77.53453
1006.16         77.2729
1006.54        75.81507
1006.92        73.38627
1007.30        70.18739
1007.69          67.444
1008.07        66.80582
1008.45        68.72554
1008.83        72.86124
1009.21        78.09074
1009.59        81.48046
1009.97        81.54331
1010.35        79.05635
1010.73        75.09832
1011.11         71.2936
1011.49        68.35925
1011.86        66.00312
1012.24        64.41729
1012.62        63.79785
1013.00        64.08634
1013.38        65.29973
1013.76        67.30212
1014.14        69.42051
1014.52        71.09285
1014.90        72.21844
1015.28        72.54104
1015.66        71.92273
1016.04        70.46813
1016.41        68.22719
1016.79        65.71397
1017.17        64.04747
1017.55        63.59695
1017.93        64.10192
1018.31        65.08467
1018.69        65.77821
1019.06        65.99574
1019.44        65.98295
1019.82        65.76073
1020.20        65.42219
1020.58        65.03652
1020.95        64.35855
1021.33        63.86319
1021.71        64.04549
1022.09        64.99343
1022.46        66.94925
1022.84        69.04102
1023.22        69.20905
1023.60        66.89793
1023.97        62.70881
1024.35        59.15707
1024.73         59.1377
