SpectraSmart Spectrum 2.9.0.0
--------- Device Information -----------
Spectrum Name :  反射率_0
Saving Time :  2024/04/26 23:21:57
Spectro-Module Model Name : SE2030-DUVN
Spectro-Module Serial Number : OS361AC55029948
Wavelength Start : 200
Wavelength End : 1025
Wavelength Unit : Wavelength(nm)
Spectrum Unit : Reflectance(%)
-----------Spectrum Setting ------------
Integration Time : 20ms
Average : 10
Boxcar : 0
Background removal :  enabled
linearity correction :  enabled
SC :  disabled
Intensity correction :  disabled
DWT denoise :  enabled
savitzky-golay :  disabled
FFT :  disabled
Running average :  disabled
Kalman :  disabled
High pass :  disabled
---------------BEGIN--------------------
Wavelength(nm)             Reflectance(%)
200.29               0
200.75        26.71059
201.21        31.30694
201.67        36.34985
202.13        39.28059
202.58        39.91573
203.04        39.58927
203.50        38.75531
203.96        38.46212
204.42        39.41611
204.88        40.53493
205.34        42.20863
205.80        45.41169
206.26         49.3797
206.72        53.26244
207.18        55.11037
207.64         52.8435
208.10        46.15685
208.55        34.47699
209.01        18.07773
209.47        8.508712
209.93        12.79497
210.39        23.44012
210.85        33.28094
211.31        39.98523
211.77        45.32819
212.23        52.89954
212.69        67.37124
213.14        85.86829
213.60        73.99379
214.06        51.75721
214.52        40.00951
214.98        36.77327
215.44        37.57634
215.90        40.53396
216.36        44.36325
216.81         46.9051
217.27        47.81467
217.73        48.25245
218.19        47.67039
218.65        45.01054
219.11        41.88418
219.57        39.19208
220.02        38.73873
220.48        42.35739
220.94        50.26097
221.40         63.8278
221.86        82.45285
222.32        93.19198
222.77        85.78146
223.23        69.69119
223.69        54.09321
224.15        43.73344
224.61        37.78886
225.06        33.98602
225.52        32.24844
225.98        32.56105
226.44        34.43754
226.90        37.75305
227.36        41.05253
227.81        41.74306
228.27        39.66904
228.73        35.88366
229.19        32.35699
229.65        31.36265
230.10        33.00829
230.56        36.43867
231.02        40.26889
231.48        42.26006
231.93        41.87993
232.39        40.22958
232.85        38.37066
233.31        37.67701
233.77        38.35988
234.22        39.96183
234.68        41.84812
235.14        43.20935
235.60        43.76922
236.05        43.75928
236.51        43.53653
236.97        43.76659
237.43        44.70851
237.88        46.27168
238.34        47.89241
238.80         48.8896
239.26        49.18076
239.71        49.19696
240.17        49.60638
240.63        52.65466
241.08        59.63742
241.54        69.74813
242.00        82.17173
242.46        96.13746
242.91        112.9082
243.37        134.3242
243.83        159.7031
244.28        176.1818
244.74        166.7457
245.20        133.7755
245.66        98.94746
246.11        78.87647
246.57        73.00461
247.03        76.55022
247.48         83.8246
247.94        84.84837
248.40        79.27503
248.85        72.11843
249.31        66.64239
249.77        64.18909
250.22        64.23125
250.68        65.69932
251.14        68.33798
251.59        70.95232
252.05        72.74141
252.51        74.73135
252.96        75.60077
253.42        74.68552
253.88        72.49824
254.33         69.0636
254.79        67.65756
255.25        70.99572
255.70        78.35117
256.16        88.40412
256.62        96.38989
257.07        95.37347
257.53         87.7446
257.99        78.28815
258.44        70.60987
258.90        67.70016
259.35        68.08626
259.81        70.37158
260.27        72.76813
260.72        73.20214
261.18        71.82355
261.63        69.30528
262.09        66.88998
262.55        65.25236
263.00        64.29536
263.46        63.82287
263.91        63.19387
264.37        62.00861
264.83        60.24323
265.28        58.15144
265.74        56.32816
266.19        55.14555
266.65         54.6988
267.11        54.68626
267.56        54.79688
268.02        54.56034
268.47        53.84055
268.93        52.83128
269.38        51.62797
269.84        50.44655
270.30        49.34196
270.75        48.21721
271.21        47.17222
271.66        46.29755
272.12        45.59457
272.57        45.03077
273.03        44.42363
273.48        43.45525
273.94        42.16235
274.39        40.64917
274.85        39.24385
275.31        38.24659
275.76        37.67233
276.22        37.42779
276.67        37.30013
277.13        37.08879
277.58         36.6765
278.04        36.16187
278.49        35.54095
278.95        34.93609
279.40        34.32783
279.86        33.75348
280.31        33.15311
280.77        32.56576
281.22        31.95812
281.68        31.39939
282.13        30.89253
282.59        30.52494
283.04         30.2661
283.50        30.11758
283.95        30.01045
284.41        29.85221
284.86        29.63025
285.32        29.41033
285.77        29.24083
286.22        29.25864
286.68         29.4718
287.13        29.77164
287.59        30.11234
288.04        30.37683
288.50        30.54261
288.95        30.61339
289.41        30.57365
289.86        30.32678
290.32        29.94044
290.77        29.46219
291.22        29.06283
291.68        28.97585
292.13        29.24673
292.59        29.83883
293.04        30.66372
293.50         31.5859
293.95         32.5432
294.40        33.57684
294.86        34.69351
295.31        35.89506
295.77        37.19036
296.22        38.53917
296.68        39.96437
297.13        41.49749
297.58        43.14864
298.04         44.9131
298.49        46.73938
298.95        48.56201
299.40        50.34888
299.85        52.12066
300.31         53.9201
300.76        55.79142
301.21        57.75019
301.67        59.78668
302.12        61.82866
302.58        63.86283
303.03        65.82664
303.48        67.75546
303.94        69.68243
304.39        71.58367
304.84        73.49306
305.30        75.42487
305.75        77.33507
306.20        79.25321
306.66        81.19283
307.11        83.10654
307.57        84.99311
308.02        86.73336
308.47        88.33627
308.93        89.82927
309.38         91.2534
309.83        92.80065
310.29        94.49942
310.74        96.28082
311.19        97.97723
311.65        99.28628
312.10        100.1221
312.55          100.58
313.00        100.8901
313.46        101.4116
313.91        102.2147
314.36        103.2389
314.82        104.3056
315.27        105.1383
315.72        105.6425
316.18         105.931
316.63        106.1403
317.08        106.5337
317.53        107.1714
317.99        107.9508
318.44         108.733
318.89        109.2671
319.35        109.4844
319.80        109.4726
320.25        109.3678
320.70         109.388
321.16        109.5945
321.61        109.9668
322.06        110.3953
322.51        110.7084
322.97        110.8473
323.42        110.8751
323.87        110.9296
324.32        111.2534
324.78        111.8518
325.23        112.7188
325.68        113.5631
326.13        113.9219
326.59        113.6885
327.04         113.035
327.49        112.3047
327.94        112.0732
328.39        112.4858
328.85        113.3459
329.30        114.4648
329.75         115.229
330.20        115.4381
330.66        115.2288
331.11        114.9131
331.56        114.9137
332.01        115.3548
332.46        116.0746
332.92        116.8003
333.37        117.2521
333.82        117.2773
334.27        117.0474
334.72        116.7348
335.17        116.5984
335.63        116.7316
336.08        117.1088
336.53        117.7359
336.98        118.6691
337.43        119.8644
337.88         121.269
338.34        122.6569
338.79        123.7751
339.24        124.4647
339.69        124.7803
340.14        124.7956
340.59        124.6748
341.05        124.5416
341.50        124.3758
341.95         124.294
342.40        124.4573
342.85        124.9018
343.30        125.6015
343.75        126.4475
344.20        127.2355
344.66        127.8843
345.11        128.4093
345.56        128.8197
346.01        129.1548
346.46        129.4419
346.91        129.6796
347.36        129.8608
347.81        129.9932
348.26          130.08
348.72        130.1082
349.17        130.1549
349.62        130.3756
350.07        130.7769
350.52        131.3348
350.97        131.7774
351.42        131.6694
351.87        130.9609
352.32        129.8042
352.77        128.6448
353.22        128.1342
353.67        128.3895
354.13        129.2125
354.58        130.1695
355.03        130.4866
355.48        129.9662
355.93        128.8451
356.38        127.5852
356.83        126.8816
357.28        126.8692
357.73        127.2905
358.18        127.7383
358.63        127.5727
359.08        126.6324
359.53        125.1559
359.98        123.4685
360.43        122.0256
360.88        120.9539
361.33        120.1244
361.78        119.3739
362.23        118.4558
362.68        117.3278
363.13        116.1091
363.58        114.9528
364.03        114.0681
364.48        113.4775
364.93        113.0648
365.38        112.6899
365.83        112.1477
366.28         111.378
366.73        110.4603
367.18        109.4306
367.63        108.3401
368.08        107.2355
368.53         106.114
368.98         105.073
369.43        104.2636
369.88        103.7097
370.33        103.3776
370.78        103.1363
371.23        102.7614
371.68        102.1832
372.13        101.4397
372.58        100.6386
373.03        99.96305
373.48        99.44644
373.93        99.01835
374.38         98.5517
374.83        97.85808
375.28        96.90845
375.72        95.76807
376.17        94.63348
376.62        93.67134
377.07        92.94334
377.52        92.42357
377.97        92.02063
378.42        91.60021
378.87        91.12092
379.32        90.58127
379.77        90.11643
380.22        89.92264
380.67        89.99386
381.11        90.28715
381.56        90.42657
382.01        89.89838
382.46        88.66269
382.91        86.97808
383.36        85.33871
383.81         84.4127
384.26        84.30106
384.71         84.7704
385.15        85.49751
385.60        85.91301
386.05        85.82859
386.50        85.40886
386.95        84.76144
387.40        84.06407
387.85        83.40943
388.29        82.69318
388.74        82.07526
389.19         81.5743
389.64        81.18611
390.09        80.90639
390.54        80.67938
390.98        80.38112
391.43        80.02856
391.88        79.64384
392.33        79.27313
392.78        78.95406
393.23        78.69114
393.67        78.50739
394.12        78.42817
394.57        78.15822
395.02        77.76563
395.47        77.66206
395.91        77.80487
396.36        77.71882
396.81        77.40092
397.26        77.11718
397.71        76.87061
398.15        76.56998
398.60        76.33094
399.05        75.98979
399.50        75.62171
399.95        75.72263
400.39        76.17107
400.84        75.91813
401.29        75.08982
401.74        75.05489
402.18        75.67132
402.63        75.37743
403.08        74.31179
403.53        73.82181
403.97        73.96548
404.42        74.06037
404.87        74.00361
405.32        73.86852
405.76        73.60616
406.21        73.35845
406.66        73.15521
407.11        72.77356
407.55        72.38391
408.00        72.56852
408.45        73.21035
408.90        73.46616
409.34        73.22196
409.79        72.89644
410.24        72.61626
410.68        72.39659
411.13        72.28741
411.58        72.26777
412.03        72.23895
412.47        72.05724
412.92         71.6871
413.37        71.22247
413.81         70.7991
414.26        70.67667
414.71        70.86507
415.15        71.30605
415.60         71.8308
416.05        72.22063
416.49        72.39219
416.94        72.39297
417.39        72.29338
417.83        72.19513
418.28        72.14717
418.73        72.11594
419.17        72.11526
419.62          72.177
420.07        72.28464
420.51        72.40323
420.96         72.5321
421.41        72.57151
421.85        72.47786
422.30        72.44972
422.74         72.3885
423.19        72.04816
423.64        71.51609
424.08        71.31154
424.53        71.47245
424.98        71.67512
425.42        71.91621
425.87        72.39845
426.31        72.96071
426.76        73.17472
427.21        73.00098
427.65        72.57575
428.10        72.07549
428.54        71.86504
428.99        72.04632
429.44        72.19971
429.88        72.35635
430.33        73.06503
430.77        73.94822
431.22        74.27083
431.66        73.98535
432.11         73.2921
432.56        72.53506
433.00        72.63223
433.45        73.70502
433.89        74.54651
434.34        74.38557
434.78        75.72224
435.23        74.70424
435.67        72.42094
436.12          73.085
436.57        73.19771
437.01        73.99361
437.46        74.27342
437.90        74.02605
438.35        73.70801
438.79        73.75773
439.24         73.7803
439.68        73.85244
440.13        74.15372
440.57         74.6476
441.02        74.67088
441.46        74.34076
441.91        75.07001
442.35        76.34306
442.80        76.15361
443.24        74.81783
443.69        74.76773
444.13        75.90579
444.58        76.52589
445.02        76.17281
445.47        76.25557
445.91        76.65643
446.36        76.92404
446.80        77.02664
447.24        77.08585
447.69        77.13782
448.13        77.20915
448.58        77.32623
449.02        77.44122
449.47        77.53072
449.91        77.53006
450.36        77.45606
450.80        77.31149
451.25        77.17649
451.69        77.10782
452.13        77.14071
452.58        77.24969
453.02        77.38757
453.47        77.48459
453.91        77.50045
454.36        77.46957
454.80        77.40556
455.24        77.22691
455.69        76.93745
456.13        76.86317
456.58        76.72378
457.02        76.25999
457.46        75.63618
457.91         75.8659
458.35        76.62699
458.79        76.64133
459.24        75.92021
459.68        75.00712
460.13        74.22062
460.57        74.08945
461.01        74.40157
461.46        74.64244
461.90        75.18703
462.34        76.28699
462.79        75.75094
463.23        75.89729
463.68        75.94316
464.12         75.6259
464.56        74.95534
465.01        74.08708
465.45        73.28335
465.89        73.18639
466.34        73.62234
466.78        74.02821
467.22        74.31404
467.67        73.53607
468.11        73.47243
468.55        73.43313
468.99        73.83205
469.44        73.85899
469.88        73.51231
470.32        73.29329
470.77        73.23373
471.21        73.16389
471.65        73.07336
472.10        73.02011
472.54        73.00153
472.98        72.96499
473.42        72.88738
473.87        72.95667
474.31        73.04622
474.75        72.64784
475.20        71.96835
475.64        71.89478
476.08        72.38172
476.52        72.47071
476.97        72.09103
477.41        72.00832
477.85        72.37712
478.29        71.79467
478.74        72.29453
479.18        72.68889
479.62        72.64557
480.06        72.64719
480.50         72.3783
480.95          72.297
481.39        72.49986
481.83        71.38254
482.27        71.78998
482.72        71.98262
483.16        71.75769
483.60        71.87885
484.04        72.03792
484.48         72.3619
484.93        72.56913
485.37        72.31157
485.81        71.82755
486.25        71.08993
486.69        72.27236
487.14        73.29829
487.58        71.76122
488.02        71.98886
488.46        70.97427
488.90        71.32906
489.34        72.37007
489.79        73.77815
490.23        72.51875
490.67        71.73928
491.11        70.97481
491.55         70.8944
491.99        71.37398
492.43        71.38017
492.88        70.90756
493.32        70.73226
493.76        70.90708
494.20        71.05447
494.64        71.14968
495.08        71.32384
495.52        71.51009
495.96        71.54967
496.41        71.45031
496.85        71.35281
497.29        71.19633
497.73         71.2554
498.17        70.67601
498.61        70.61629
499.05        70.81026
499.49        70.94903
499.93        70.71746
500.37        70.82883
500.82        71.29442
501.26        70.59891
501.70        71.26293
502.14         71.2028
502.58        71.19824
503.02        71.26073
503.46        71.40665
503.90        71.57545
504.34         71.6814
504.78        71.64928
505.22        71.43562
505.66        71.16904
506.10        70.98577
506.54        70.72741
506.98        70.35444
507.42        71.09903
507.86        71.07436
508.30        70.76638
508.74         71.0988
509.18        70.94109
509.62        70.78722
510.06        70.70712
510.50        70.75118
510.94         70.8479
511.38        70.93993
511.82        70.98001
512.26        70.94971
512.70        70.86842
513.14        70.75555
513.58        70.70724
514.02        70.75407
514.46        70.74731
514.90        70.63663
515.34        71.02369
515.78        70.81564
516.22        70.88002
516.66        70.90544
517.10        70.93304
517.54        70.95752
517.98        70.98814
518.42        71.00564
518.86        70.95151
519.30        70.82816
519.74        70.65827
520.18         70.5067
520.62        70.47183
521.06        70.57331
521.50        70.78321
521.93        71.03727
522.37        71.19463
522.81        71.22207
523.25        71.16728
523.69        71.09314
524.13        70.98618
524.57        71.05018
525.01        71.10487
525.45        71.14465
525.89        71.07035
526.32         70.8636
526.76        70.58696
527.20        70.30737
527.64        70.13448
528.08        70.09575
528.52        70.15339
528.96        70.26989
529.40        70.38698
529.83        70.47567
530.27        70.55561
530.71        70.60917
531.15        70.61829
531.59        70.58318
532.03        70.50139
532.46        70.38724
532.90         70.3167
533.34        70.29385
533.78        70.26752
534.22        70.22124
534.66        70.21204
535.09         70.1829
535.53        69.98518
535.97        69.67464
536.41         69.5101
536.85        69.51618
537.28        69.59827
537.72        69.66492
538.16        69.79678
538.60         69.9517
539.04        70.12111
539.47        70.25652
539.91        70.33294
540.35        70.32973
540.79        70.25529
541.22        70.14803
541.66        70.09549
542.10         70.1086
542.54        70.16694
542.97        70.21774
543.41        70.20975
543.85        70.12331
544.29        69.99194
544.72        69.84612
545.16        69.77285
545.60        69.77984
546.04        69.84846
546.47         69.9585
546.91        70.09991
547.35        70.25537
547.79        70.35164
548.22        70.37557
548.66        70.53057
549.10        70.64806
549.53        70.55666
549.97        70.27327
550.41         70.0129
550.84        69.86598
551.28        69.90454
551.72        70.06495
552.15         70.1527
552.59        70.18912
553.03        70.03369
553.46        70.28061
553.90        70.28934
554.34        70.23292
554.77          70.146
555.21        70.01949
555.65        70.15099
556.08        70.44695
556.52        70.55251
556.96         70.4408
557.39        70.47392
557.83        70.60951
558.27        70.36121
558.70        69.81519
559.14        69.59261
559.57        69.69022
560.01        69.65986
560.45        69.53929
560.88        69.76517
561.32        70.26404
561.75        70.50536
562.19        70.47697
562.63        70.42081
563.06        70.39366
563.50         70.3412
563.93        70.35871
564.37        70.35673
564.80        70.37675
565.24          70.169
565.68        69.64213
566.11        70.28565
566.55        69.59213
566.98        69.46217
567.42        69.30627
567.85        69.54935
568.29        70.10583
568.72        70.49747
569.16        70.76523
569.60        70.81522
570.03        70.85834
570.47        70.93654
570.90        71.25787
571.34        70.16389
571.77        70.85934
572.21        71.20452
572.64        71.09376
573.08        71.33955
573.51        70.64112
573.95        70.57246
574.38        71.01756
574.82        71.08262
575.25        70.50514
575.69        70.95579
576.12        71.40677
576.56        70.34096
576.99         70.6117
577.42        70.55509
577.86         70.6021
578.29        71.25553
578.73        71.29151
579.16        71.20095
579.60        70.63896
580.03        70.79568
580.47        70.70261
580.90        71.42983
581.33        71.19601
581.77        71.72327
582.20        71.19064
582.64        71.71204
583.07        71.16906
583.51        70.92535
583.94        70.74181
584.37         70.7664
584.81        71.02469
585.24        71.13599
585.68        71.04063
586.11        70.95868
586.54        70.70724
586.98        70.23612
587.41        69.94351
587.85        70.71953
588.28        70.28532
588.71        70.01776
589.15        69.94718
589.58        70.57941
590.01        70.32923
590.45        70.11922
590.88        71.10246
591.31        70.88711
591.75        70.16666
592.18        69.75143
592.61        69.80751
593.05        70.60201
593.48        70.99779
593.91        71.04723
594.35         70.8449
594.78        70.30659
595.21        69.77783
595.65        70.05794
596.08        71.15599
596.51        71.41274
596.94        70.67522
597.38        70.40483
597.81        70.54103
598.24        71.14339
598.68        70.90019
599.11        70.30155
599.54        71.46667
599.97        71.00037
600.41        70.66742
600.84        70.13029
601.27        70.77923
601.70        70.40949
602.14        70.83737
602.57         70.5606
603.00        70.39174
603.43        69.52765
603.87        70.57274
604.30        71.16976
604.73        70.74948
605.16        69.84307
605.60        70.43513
606.03        70.12279
606.46        69.62102
606.89        69.98558
607.32         70.3978
607.76        70.44002
608.19         70.5458
608.62        70.36382
609.05         70.1869
609.48         70.1819
609.92        71.36982
610.35        70.52509
610.78        70.04057
611.21        70.61809
611.64        70.21895
612.07          70.547
612.50        70.40282
612.94        70.41351
613.37        70.41452
613.80        70.11277
614.23        69.69981
614.66        69.54632
615.09        70.09441
615.52        70.30988
615.96        70.23376
616.39         70.3037
616.82        70.55408
617.25        70.09141
617.68        70.06532
618.11        70.06393
618.54         70.3166
618.97        70.31976
619.40        70.14169
619.84        69.72141
620.27        69.89105
620.70        70.04957
621.13        70.27734
621.56        69.86201
621.99        68.95611
622.42        68.73251
622.85        69.27768
623.28        69.20263
623.71        69.32032
624.14        69.60258
624.57        69.60064
625.00        69.16612
625.43        69.65044
625.86        69.63992
626.29        69.64478
626.72        69.21487
627.15         69.5827
627.58        69.60131
628.01        69.53381
628.44        69.64993
628.87        69.64734
629.30        69.24745
629.73        69.17571
630.16         69.3777
630.59        69.32181
631.02        69.57961
631.45        69.85097
631.88        69.99985
632.31        69.97059
632.74        69.88406
633.17        69.67757
633.60        69.51278
634.03        69.39052
634.46        69.28855
634.89        69.20437
635.32        69.15366
635.75        69.13889
636.18        69.08668
636.61        69.01991
637.04        69.01399
637.47          69.071
637.89        69.15834
638.32        69.21609
638.75        69.21795
639.18        69.15472
639.61        69.03739
640.04         68.9145
640.47        68.86338
640.90        68.90142
641.33        69.00959
641.76        69.13901
642.18        69.21497
642.61        69.19551
643.04        69.11308
643.47        69.01488
643.90        68.97935
644.33        69.02023
644.76        69.10494
645.18         69.1926
645.61         69.1985
646.04        69.11855
646.47        68.99714
646.90        68.85971
647.33        68.75355
647.75        68.67052
648.18        68.59221
648.61        68.59784
649.04        68.68909
649.47        68.72392
649.89        69.47681
650.32        69.05125
650.75        68.90849
651.18        68.63226
651.61        68.63194
652.03        68.92559
652.46         69.1013
652.89        69.08144
653.32         69.1304
653.74        69.41794
654.17        68.76958
654.60        69.38794
655.03        69.53193
655.46         68.8056
655.88        68.57296
656.31        70.47402
656.74        72.13697
657.16         72.7986
657.59        73.40485
658.02        70.41063
658.45         69.9733
658.87        69.73361
659.30         69.6426
659.73        69.34468
660.15         70.2291
660.58        69.19851
661.01        69.10892
661.44        69.09551
661.86        68.90285
662.29        68.49396
662.72        68.92489
663.14        68.83243
663.57        68.75121
664.00        68.41672
664.42        68.42966
664.85        68.81353
665.27        69.25485
665.70         69.5836
666.13         69.7298
666.55        69.65437
666.98        69.30013
667.41        68.78059
667.83        68.73468
668.26        68.50556
668.69        68.61847
669.11        68.79841
669.54        68.94165
669.96        69.01472
670.39         69.0487
670.82        69.08395
671.24        69.14849
671.67         69.2466
672.09        69.34338
672.52        69.42773
672.94          69.447
673.37        69.40025
673.80        69.29541
674.22        69.18159
674.65         69.0999
675.07         69.0859
675.50         69.1207
675.92        69.16472
676.35        69.13863
676.77        69.03153
677.20        68.86478
677.62        68.71191
678.05        68.68841
678.47        68.80742
678.90        69.03193
679.32        69.26328
679.75        69.34742
680.17        69.24778
680.60        69.05786
681.02         68.8608
681.45         68.7037
681.87        68.68234
682.30        68.91179
682.72        69.31065
683.15        69.60274
683.57        69.70407
684.00        69.56422
684.42         69.3009
684.85         69.2299
685.27        69.38322
685.70        69.60469
686.12        69.78802
686.54        69.85939
686.97        69.78467
687.39        69.57937
687.82        69.30256
688.24        69.18611
688.66        69.08404
689.09        69.11592
689.51        69.19647
689.94        69.27589
690.36        69.34579
690.78        69.32511
691.21        69.27648
691.63        69.48876
692.06        69.87334
692.48        69.94464
692.90         69.7058
693.33        69.57312
693.75        69.55875
694.17         69.4103
694.60        69.19916
695.02        69.08983
695.44        69.11378
695.87        69.41804
696.29        69.84586
696.71        69.72939
697.14        69.18344
697.56        68.99297
697.98        69.19237
698.41        69.48942
698.83        69.38664
699.25        69.65784
699.68        70.02604
700.10         70.1535
700.52         69.9678
700.94        69.59396
701.37        69.19344
701.79        69.01984
702.21        69.13028
702.64        69.42371
703.06        69.78614
703.48         70.0149
703.90        70.04411
704.33          69.938
704.75        69.74967
705.17        69.55328
705.59        69.39491
706.01        69.25598
706.44        69.15905
706.86        69.18089
707.28         69.3181
707.70        69.50403
708.12        69.71817
708.55        70.01669
708.97         70.3243
709.39        70.38699
709.81        70.22397
710.23        70.13008
710.66        70.13173
711.08        70.07858
711.50        69.95397
711.92        69.82749
712.34        69.71156
712.76         69.6115
713.19        69.53179
713.61        69.51286
714.03        69.54786
714.45        69.63177
714.87         69.7775
715.29        70.00471
715.71        70.29584
716.13        70.62734
716.56         70.9369
716.98        71.12741
717.40        71.11861
717.82         71.1095
718.24        71.16096
718.66        70.47636
719.08        70.52116
719.50        70.17313
719.92        69.91873
720.34        69.81058
720.76        69.87048
721.19        70.03859
721.61        70.28028
722.03        70.51777
722.45        70.70197
722.87        70.83825
723.29        70.89306
723.71         70.8207
724.13        70.62989
724.55        70.34492
724.97        70.04085
725.39        69.85284
725.81         69.8215
726.23        69.89088
726.65        70.02148
727.07        70.29876
727.49        70.44022
727.91        70.65996
728.33        70.86255
728.75         71.0237
729.17        71.12795
729.59        71.16147
730.01        71.13641
730.43        71.10978
730.85        71.09819
731.27        71.03899
731.69        70.89859
732.10        70.91815
732.52        70.62231
732.94        70.42947
733.36        70.27005
733.78        70.13638
734.20        70.03349
734.62         70.2043
735.04        70.68351
735.46        70.23519
735.88        70.92826
736.30        70.92062
736.72        71.12286
737.13        71.26566
737.55        71.38133
737.97        71.59993
738.39        71.80102
738.81          71.519
739.23        70.89297
739.65        70.77299
740.06        71.11417
740.48        71.22868
740.90        71.07317
741.32        71.07532
741.74        71.25599
742.16        71.41504
742.57        71.53809
742.99        71.66139
743.41        71.74857
743.83        71.72311
744.25        71.58482
744.67        71.34785
745.08        71.11938
745.50         71.0532
745.92        71.18193
746.34        71.44229
746.75        71.73145
747.17        71.83122
747.59        71.69718
748.01        71.51314
748.42        71.31998
748.84         70.9485
749.26         70.5704
749.68        70.65516
750.09        71.11696
750.51        71.50895
750.93        71.66857
751.35        71.50552
751.76        71.11543
752.18        70.90475
752.60        70.91155
753.01        70.89127
753.43          70.805
753.85        70.75374
754.27        70.74354
754.68        70.76638
755.10        70.81651
755.52         70.8828
755.93        70.94863
756.35        70.98364
756.77        71.04391
757.18         71.1916
757.60          71.436
758.02        71.84134
758.43        72.20243
758.85        72.10719
759.26        71.78427
759.68        71.23812
760.10        70.66493
760.51        71.21309
760.93        72.14738
761.34        71.51765
761.76        71.41479
762.18        71.32088
762.59        71.88944
763.01        72.03564
763.42         71.8083
763.84        71.73901
764.26        71.84513
764.67        71.86586
765.09        71.80305
765.50        71.59846
765.92        71.33755
766.33        71.14056
766.75        70.97357
767.16        70.92905
767.58         70.9836
768.00        70.91591
768.41        70.86179
768.83        71.47752
769.24        72.44892
769.66        72.65818
770.07        72.11694
770.49        71.40112
770.90        70.86493
771.32        71.27012
771.73        72.37692
772.15         72.7546
772.56        72.30768
772.97        71.83976
773.39        71.57347
773.80        71.56442
774.22         71.8049
774.63        72.13693
775.05         72.3762
775.46        72.50061
775.88         72.4285
776.29         72.1246
776.70        71.73936
777.12        71.60915
777.53        71.80753
777.95        72.18112
778.36        72.59769
778.77        72.79718
779.19        72.73306
779.60        72.52367
780.02        72.22768
780.43        72.02654
780.84         71.9987
781.26        71.75272
781.67        71.45612
782.09        72.10923
782.50        73.36733
782.91        73.47325
783.33        72.50494
783.74        72.14849
784.15         72.4808
784.57        72.50327
784.98        72.26447
785.39        72.30465
785.81        72.64052
786.22        73.12244
786.63        73.61029
787.04         73.8779
787.46        73.88366
787.87        73.67967
788.28        73.40156
788.70        73.23088
789.11        73.19585
789.52        73.28036
789.93        73.39825
790.35        73.39642
790.76        73.24746
791.17        72.99126
791.58         72.7476
792.00        72.60246
792.41        72.59081
792.82         72.9099
793.23        73.38683
793.65        73.14188
794.06        72.41766
794.47        72.63466
794.88        73.60437
795.29        73.93632
795.71         73.5461
796.12        73.23846
796.53        73.15129
796.94        73.15977
797.35        73.30498
797.76        73.62284
798.18        73.98328
798.59        74.22234
799.00        74.26595
799.41        74.15396
799.82        73.96621
800.23        73.85074
800.64        73.84394
801.06        73.85956
801.47        73.89925
801.88        73.87361
802.29         73.7578
802.70        73.59191
803.11        73.39387
803.52        73.18233
803.93        73.00089
804.34         72.8638
804.75        72.81234
805.17        72.98942
805.58        73.45103
805.99        73.83437
806.40        74.12115
806.81        74.97465
807.22        76.01871
807.63        75.68095
808.04        74.22636
808.45        73.49023
808.86        73.65234
809.27        73.75392
809.68        73.66273
810.09        73.61026
810.50         73.5615
810.91        73.46047
811.32         73.4164
811.73         73.5915
812.14        73.99961
812.55        74.59001
812.96        75.15245
813.37        75.29903
813.78        74.94337
814.19        74.24099
814.60        73.45521
815.01        72.94205
815.42        72.78307
815.83        72.87693
816.24          73.135
816.65        73.37593
817.05        73.52332
817.46        73.61166
817.87         73.6554
818.28        73.61881
818.69        73.51143
819.10        73.31279
819.51         73.1316
819.92        73.17988
820.33        73.49457
820.74        74.00941
821.14        74.54994
821.55        74.82335
821.96        74.76278
822.37        74.45439
822.78        74.04024
823.19        73.76879
823.60        73.72289
824.00        73.85302
824.41        74.03917
824.82        74.19076
825.23         74.2558
825.64        74.28093
826.04        74.27584
826.45         74.2032
826.86        74.08743
827.27        73.93841
827.68        73.79715
828.08        73.76926
828.49        73.82293
828.90        73.94302
829.31        74.12327
829.72         74.3512
830.12        74.62698
830.53        74.88765
830.94        75.04363
831.35        74.90063
831.75        74.45434
832.16        73.75546
832.57         73.0204
832.97        72.56773
833.38        72.47981
833.79        72.64908
834.20        72.97022
834.60           73.26
835.01        73.45839
835.42        73.67399
835.82        73.86459
836.23        73.87492
836.64        73.72529
837.04        73.39439
837.45        73.15724
837.86        73.53962
838.26        74.63815
838.67        76.26105
839.08        77.84022
839.48        78.31348
839.89        77.42893
840.29        75.57306
840.70        73.59038
841.11        72.49452
841.51        72.53341
841.92        73.39697
842.33        74.67896
842.73        75.63663
843.14        75.88467
843.54         75.7017
843.95        75.34161
844.35        75.26504
844.76         75.5704
845.17        76.07327
845.57        76.56354
845.98        76.69855
846.38        76.41982
846.79        75.85876
847.19        75.22016
847.60        74.78697
848.00        74.65827
848.41        74.71764
848.81        74.89045
849.22        74.96412
849.62        74.91798
850.03        74.81284
850.43        74.69248
850.84        74.54583
851.24        74.43247
851.65        74.25989
852.05         74.1904
852.46         74.3906
852.86        74.86532
853.27        75.54335
853.67        76.10863
854.07        76.24732
854.48        75.89165
854.88        75.17287
855.29        74.28957
855.69        73.75896
856.10        73.67626
856.50        73.98475
856.90        74.46735
857.31        74.77252
857.71        74.83573
858.12        74.68316
858.52        74.44968
858.92        74.23998
859.33        74.07952
859.73        73.96586
860.13        73.81181
860.54        73.51132
860.94        73.10516
861.34        72.64886
861.75        72.25008
862.15        72.11347
862.55        72.25711
862.96        72.56281
863.36        72.99077
863.76        73.37946
864.17        73.63619
864.57        73.82641
864.97        73.82133
865.38        73.43954
865.78         72.7142
866.18        71.69528
866.58        70.68581
866.99        70.22903
867.39        70.48975
867.79        71.30338
868.19        72.32911
868.60        73.00935
869.00        73.21904
869.40        73.06759
869.80        72.73238
870.21        72.56335
870.61        72.74124
871.01        73.08886
871.41        73.39838
871.81        73.39259
872.22        73.02119
872.62        72.38552
873.02        71.73469
873.42        71.47047
873.82        71.68961
874.22        72.25475
874.63        72.86942
875.03        73.08368
875.43        72.77957
875.83         72.1189
876.23        71.35566
876.63        70.87547
877.03        70.79176
877.44        70.96351
877.84        71.28223
878.24        71.56627
878.64        71.69321
879.04        71.59372
879.44        71.40127
879.84        71.40276
880.24        71.61942
880.64        71.93063
881.04        72.11268
881.44        71.83804
881.84        71.07626
882.24        69.98325
882.65        68.91834
883.05        68.42101
883.45        68.62121
883.85         69.3586
884.25        70.35409
884.65        71.11727
885.05        71.46872
885.45        71.53207
885.85        71.42966
886.25        71.36018
886.65        71.39589
887.05        71.46362
887.45        71.52866
887.85        71.55729
888.25        71.53409
888.65        71.48129
889.04        71.43616
889.44        71.46984
889.84        71.57301
890.24        71.72411
890.64        71.82761
891.04        71.73421
891.44        71.43357
891.84         71.0006
892.24        70.57545
892.64        70.35831
893.04        70.40457
893.44        70.66853
893.83        71.08763
894.23         71.4949
894.63        71.84344
895.03        72.13503
895.43        72.40139
895.83        72.70879
896.23        73.03879
896.63        73.32561
897.02        73.44173
897.42        73.22584
897.82        72.67846
898.22        71.93291
898.62        71.13201
899.01        70.46339
899.41        70.01976
899.81        69.73325
900.21        69.66557
900.61        69.90897
901.00        70.42163
901.40        71.13869
901.80        71.81036
902.20        72.03059
902.59        71.73286
902.99        71.04522
903.39        70.20184
903.79        69.60275
904.18        69.37403
904.58        69.39722
904.98        69.65602
905.38        70.12852
905.77        70.75613
906.17        71.56606
906.57        72.30724
906.96        72.55053
907.36        72.20541
907.76        71.40394
908.15        70.55202
908.55         70.2925
908.95        70.78229
909.34        71.83755
909.74         73.0481
910.14        73.81512
910.53        73.91718
910.93        73.55222
911.33        72.90364
911.72        72.24136
912.12        71.74796
912.52        71.35595
912.91        71.05075
913.31         70.8397
913.70        70.72595
914.10        70.70652
914.49        70.89246
914.89        71.35307
915.29        72.08137
915.68        73.00812
916.08        73.82907
916.47        74.13451
916.87        73.84065
917.26        73.04709
917.66        72.10569
918.05        71.39845
918.45        71.05168
918.84        71.03559
919.24        71.15343
919.64        71.19621
920.03        71.12285
920.42        70.97206
920.82        70.97506
921.21        71.42668
921.61        72.33573
922.00        73.61059
922.40        74.84638
922.79        75.49918
923.19         75.3745
923.58        74.66805
923.98        73.74116
924.37        73.06061
924.77         72.7785
925.16        72.72659
925.55        72.80434
925.95        72.81081
926.34        72.69357
926.74        72.53011
927.13        72.29285
927.52        71.84473
927.92        71.25213
928.31        70.55264
928.70        69.95379
929.10        69.75171
929.49        69.98589
929.89        70.50212
930.28        71.25462
930.67        72.03075
931.07        72.68186
931.46        73.31854
931.85        73.69588
932.24        73.48954
932.64        72.73795
933.03        71.52483
933.42        70.36837
933.82        70.01957
934.21        70.62049
934.60        72.01508
934.99        73.67577
935.39        74.62331
935.78        74.60683
936.17        73.79757
936.56        72.69763
936.96        72.11057
937.35        72.23331
937.74        72.80531
938.13        73.38282
938.53        73.29842
938.92        72.43559
939.31        71.11714
939.70        69.76225
940.09         68.9327
940.49        68.73907
940.88        69.01659
941.27        69.62155
941.66        70.28252
942.05        70.85716
942.44        71.43737
942.84        71.92818
943.23        72.16557
943.62        72.14745
944.01        71.85796
944.40        71.53318
944.79        71.60816
945.18        72.15225
945.57        73.02645
945.97        73.85226
946.36        74.08117
946.75        73.53496
947.14        72.47221
947.53        71.22182
947.92        70.23306
948.31        69.65763
948.70        69.38832
949.09        69.40341
949.48        69.66227
949.87        70.11236
950.26        70.75515
950.65        71.49863
951.04        72.17804
951.43        72.70405
951.82         73.0482
952.21        73.18047
952.60        73.09357
952.99         72.8365
953.38        72.47835
953.77        72.09135
954.16        71.78632
954.55            71.6
954.94        71.47123
955.33        71.52225
955.72        71.93843
956.11        72.70468
956.50        73.77695
956.89        74.68419
957.28        74.64381
957.66        73.52677
958.05        71.65022
958.44        69.72098
958.83        68.76105
959.22        68.96311
959.61        70.03564
960.00        71.43784
960.39        72.14986
960.78        71.83879
961.16        70.83521
961.55        69.61816
961.94        68.77715
962.33        68.49461
962.72        68.60777
963.11        68.96185
963.49         69.3215
963.88        69.49373
964.27          69.554
964.66        69.69139
965.04        70.21539
965.43        71.10454
965.82          72.287
966.21        73.28396
966.60        73.21963
966.98        71.91537
967.37        69.82555
967.76        67.72345
968.15        66.55553
968.53        66.50111
968.92        67.31181
969.31        68.58834
969.69        69.50233
970.08        69.64559
970.47        69.27907
970.86        68.78737
971.24        68.73435
971.63         69.2421
972.02        70.08877
972.40        70.97665
972.79        71.11276
973.17        70.37511
973.56        69.10698
973.95        67.73692
974.33        66.75259
974.72        66.28312
975.11        66.16454
975.49        66.36478
975.88        66.73971
976.26        67.25011
976.65        67.87189
977.04        68.47621
977.42        68.83493
977.81        68.85716
978.19        68.53875
978.58        68.13499
978.96        68.05507
979.35        68.36104
979.74        68.98296
980.12        69.66747
980.51        69.72025
980.89        69.14325
981.28         68.1761
981.66        67.26711
982.05        67.01879
982.43        67.56465
982.82        68.66434
983.20        70.20002
983.59        71.79851
983.97        73.30474
984.35        74.74915
984.74        75.72367
985.12        75.83457
985.51        74.99733
985.89        73.37931
986.28        71.67512
986.66        70.86577
987.04        71.23332
987.43        72.50079
987.81        74.17939
988.20        75.11579
988.58        74.93642
988.96        73.89901
989.35        72.46029
989.73        71.25386
990.12        70.45184
990.50        69.91236
990.88        69.40324
991.27        68.59849
991.65        67.49441
992.03        66.29343
992.42        65.42111
992.80        65.37001
993.18        66.24301
993.56         67.9173
993.95        69.82494
994.33        71.07326
994.71        71.21713
995.10        70.56345
995.48          69.703
995.86        69.67116
996.24        70.69611
996.63        72.31138
997.01        74.20042
997.39        75.30238
997.77        75.18617
998.15        74.36042
998.54        72.96202
998.92        71.02175
999.30        68.83775
999.68        66.42831
1000.06        64.63845
1000.45        64.65939
1000.83        66.73769
1001.21        70.70048
1001.59        75.37829
1001.97        77.90287
1002.35        77.20109
1002.73        74.15728
1003.12        70.48412
1003.50        68.34829
1003.88        68.35602
1004.26        69.76349
1004.64        72.13868
1005.02        74.47029
1005.40        76.13737
1005.78        77.62162
1006.16        78.35609
1006.54        77.41787
1006.92        74.95185
1007.30        71.25263
1007.69        67.91146
1008.07         67.1291
1008.45        69.49622
1008.83        74.60997
1009.21        80.93855
1009.59        84.59388
1009.97         83.7636
1010.35        79.56433
1010.73        73.85255
1011.11        69.31522
1011.49        66.77348
1011.86        65.48948
1012.24        65.05495
1012.62        64.87864
1013.00        64.72893
1013.38        64.84975
1013.76        65.31991
1014.14        66.10699
1014.52        67.04217
1014.90        67.82871
1015.28        68.18363
1015.66        67.88513
1016.04        66.94119
1016.41        65.52515
1016.79        63.77907
1017.17        62.08809
1017.55        60.75502
1017.93        59.78989
1018.31        59.43877
1018.69        60.01945
1019.06        61.56214
1019.44         64.0591
1019.82        67.02296
1020.20        69.08268
1020.58        69.51579
1020.95        68.51877
1021.33        66.96942
1021.71        65.83136
1022.09        65.35576
1022.46         65.4939
1022.84        65.84267
1023.22        65.63996
1023.60        64.69782
1023.97        63.15499
1024.35        62.30735
1024.73        63.55171
