SpectraSmart Spectrum 2.9.0.0
--------- Device Information -----------
Spectrum Name :  反射率_0
Saving Time :  2024/04/26 23:20:04
Spectro-Module Model Name : SE2030-DUVN
Spectro-Module Serial Number : OS361AC55029948
Wavelength Start : 200
Wavelength End : 1025
Wavelength Unit : Wavelength(nm)
Spectrum Unit : Reflectance(%)
-----------Spectrum Setting ------------
Integration Time : 20ms
Average : 10
Boxcar : 0
Background removal :  enabled
linearity correction :  enabled
SC :  disabled
Intensity correction :  disabled
DWT denoise :  enabled
savitzky-golay :  disabled
FFT :  disabled
Running average :  disabled
Kalman :  disabled
High pass :  disabled
---------------BEGIN--------------------
Wavelength(nm)             Reflectance(%)
200.29               0
200.75        47.42612
201.21        39.98621
201.67         34.1009
202.13        31.18353
202.58        30.95605
203.04        33.53837
203.50        38.59414
203.96        43.79161
204.42        47.20765
204.88        48.60044
205.34        48.78836
205.80        50.20522
206.26        53.01699
206.72        55.51144
207.18        56.68303
207.64        55.76303
208.10        52.65632
208.55          47.686
209.01        40.19319
209.47        33.90335
209.93        32.77047
210.39        34.99905
210.85         38.3513
211.31        42.27677
211.77        48.08864
212.23        60.00713
212.69        88.68562
213.14        136.6138
213.60        133.5252
214.06        98.21957
214.52        74.72163
214.98          64.797
215.44        61.16056
215.90        59.56394
216.36        58.85202
216.81        57.55798
217.27        55.46888
217.73        53.89081
218.19        52.12405
218.65        48.84509
219.11        45.79062
219.57        43.56703
220.02        44.38309
220.48         50.9992
220.94        64.15745
221.40        86.27922
221.86        116.0067
222.32        131.8537
222.77        117.8072
223.23         89.6852
223.69        63.76115
224.15        48.44009
224.61         41.5895
225.06        38.85672
225.52        38.63346
225.98        39.41389
226.44        40.58608
226.90        42.57034
227.36        44.42321
227.81        44.41631
228.27        42.49432
228.73        39.14028
229.19        35.88448
229.65        34.52831
230.10        35.11245
230.56         37.0824
231.02        39.12103
231.48        39.13809
231.93        36.92494
232.39        33.68538
232.85        30.81007
233.31        30.09091
233.77        31.64763
234.22        34.74406
234.68        38.40462
235.14        41.24256
235.60        42.79123
236.05        43.52821
236.51        43.60387
236.97        43.32458
237.43        42.98005
237.88         42.4808
238.34        42.30694
238.80        43.60113
239.26        46.88876
239.71        52.77875
240.17         60.9922
240.63        69.68629
241.08        77.24641
241.54        82.77966
242.00        87.02741
242.46        93.07327
242.91         103.681
243.37        119.2267
243.83        140.4189
244.28        159.3739
244.74        161.9595
245.20        147.7937
245.66          127.32
246.11        109.1798
246.57        94.53693
247.03        81.12681
247.48        69.22751
247.94        61.52244
248.40        58.92452
248.85        59.50758
249.31        61.21614
249.77        62.04269
250.22        61.66803
250.68         60.2945
251.14        58.56491
251.59        58.62071
252.05        61.55157
252.51        66.30861
252.96        70.09765
253.42        71.04667
253.88        69.63928
254.33        66.70836
254.79        65.23664
255.25        67.51192
255.70        73.08678
256.16        80.86813
256.62        87.41154
257.07        87.58857
257.53        82.94391
257.99        76.76843
258.44        71.55654
258.90        69.65031
259.35        69.92914
259.81        71.56924
260.27         73.2049
260.72        73.28898
261.18        72.03066
261.63        69.81998
262.09        67.80801
262.55        66.60087
263.00        66.04309
263.46        65.96527
263.91        65.58649
264.37        64.32288
264.83        62.17207
265.28        59.48375
265.74        57.04219
266.19        55.45269
266.65        54.83423
267.11        54.80781
267.56         54.9319
268.02        54.52847
268.47        53.42748
268.93        51.91499
269.38        50.21758
269.84        48.73618
270.30        47.57324
270.75        46.57353
271.21        45.74903
271.66        45.06237
272.12         44.4758
272.57        43.98774
273.03        43.46463
273.48        42.66496
273.94        41.62292
274.39        40.38897
274.85        39.21812
275.31        38.32243
275.76        37.71027
276.22        37.33174
276.67        37.03041
277.13        36.68565
277.58        36.19805
278.04        35.63626
278.49         34.9848
278.95        34.34271
279.40        33.69072
279.86        33.09703
280.31         32.4789
280.77        31.83619
281.22        31.14355
281.68        30.47383
282.13         29.9114
282.59        29.66036
283.04          29.688
283.50        29.94258
283.95        30.22075
284.41        30.21124
284.86        29.86056
285.32        29.32193
285.77        28.77909
286.22        28.55729
286.68        28.71363
287.13        29.08895
287.59        29.58016
288.04        29.98283
288.50        30.24237
288.95        30.38286
289.41        30.41736
289.86        30.28874
290.32        30.06292
290.77        29.76394
291.22        29.50773
291.68        29.45067
292.13        29.63872
292.59        30.07953
293.04         30.7616
293.50        31.66852
293.95        32.76577
294.40        34.04811
294.86         35.4785
295.31        36.98889
295.77        38.55169
296.22        40.13751
296.68        41.73914
297.13        43.34328
297.58        44.96264
298.04        46.60808
298.49        48.28502
298.95        50.02494
299.40        51.82012
299.85        53.66566
300.31        55.57233
300.76        57.52673
301.21        59.52729
301.67        61.58762
302.12         63.6315
302.58         65.6416
303.03        67.55951
303.48        69.41769
303.94        71.28455
304.39          73.189
304.84        75.17214
305.30        77.23688
305.75        79.28504
306.20        81.26279
306.66        83.17286
307.11        84.99473
307.57        86.79444
308.02        88.55389
308.47        90.29612
308.93        92.00618
309.38        93.65919
309.83        95.34965
310.29        97.08719
310.74        98.84628
311.19        100.4935
311.65        101.7803
312.10        102.6428
312.55        103.1518
313.00        103.5568
313.46        104.2528
313.91        105.2989
314.36        106.6172
314.82        107.9545
315.27        108.9085
315.72        109.3598
316.18        109.4684
316.63         109.442
317.08        109.6596
317.53        110.2195
317.99        110.9873
318.44        111.8192
318.89        112.4502
319.35        112.7944
319.80        112.9456
320.25        112.9952
320.70        113.0859
321.16        113.2651
321.61        113.5282
322.06        113.8183
322.51        114.0604
322.97        114.2195
323.42        114.3273
323.87        114.4802
324.32        114.8529
324.78        115.4267
325.23        116.2225
325.68        116.9584
326.13        117.1873
326.59        116.8245
327.04        116.0507
327.49        115.2291
327.94        114.9683
328.39        115.4158
328.85        116.3529
329.30        117.5984
329.75        118.5351
330.20        118.9455
330.66        118.9699
331.11        118.8341
331.56        118.8255
332.01        119.0539
332.46        119.3857
332.92        119.7183
333.37        120.0793
333.82        120.3817
334.27        120.7032
334.72        120.9979
335.17        121.1522
335.63        121.1637
336.08        121.1371
336.53        121.2359
336.98        121.7837
337.43        122.8343
337.88        124.2428
338.34        125.7754
338.79        127.1696
339.24        128.2168
339.69        128.9717
340.14        129.3638
340.59        129.3127
341.05        128.9105
341.50        128.2231
341.95        127.5391
342.40        127.2968
342.85         127.607
343.30        128.3563
343.75        129.3875
344.20        130.4041
344.66        131.2714
345.11        132.0423
345.56        132.6341
346.01        132.9391
346.46        132.9731
346.91        132.7629
347.36        132.4797
347.81        132.4213
348.26        132.6446
348.72        133.0566
349.17        133.5294
349.62        133.8861
350.07         134.061
350.52        134.1392
350.97         134.052
351.42        133.6914
351.87        133.0897
352.32        132.2887
352.77        131.5596
353.22        131.3016
353.67        131.5656
354.13        132.2238
354.58        132.9597
355.03        133.1908
355.48        132.7624
355.93        131.8362
356.38        130.7493
356.83        130.0164
357.28        129.7433
357.73        129.7515
358.18        129.7562
358.63        129.3109
359.08        128.3161
359.53        126.9504
359.98        125.4641
360.43        124.2011
360.88        123.2436
361.33        122.4832
361.78        121.7726
362.23        120.8893
362.68        119.7953
363.13        118.5986
363.58          117.42
364.03        116.4239
364.48        115.6399
364.93        114.9831
365.38         114.392
365.83        113.7857
366.28        113.1247
366.73        112.4364
367.18        111.6793
367.63        110.7831
368.08        109.7512
368.53        108.6123
368.98        107.4681
369.43        106.4796
369.88        105.6906
370.33        105.0676
370.78        104.5343
371.23         103.961
371.68        103.3042
372.13        102.5854
372.58        101.8624
373.03        101.2269
373.48        100.6834
373.93        100.1844
374.38        99.62507
374.83        98.85575
375.28        97.86145
375.72        96.69276
376.17        95.53982
376.62        94.56223
377.07        93.81941
377.52        93.29042
377.97        92.89207
378.42        92.49902
378.87        92.06992
379.32        91.59883
379.77         91.2037
380.22        91.05788
380.67        91.15113
381.11        91.44338
381.56        91.57748
382.01        91.07492
382.46        89.89791
382.91        88.28774
383.36        86.70814
383.81        85.78379
384.26        85.61221
384.71        85.98279
385.15        86.59466
385.60        86.91697
386.05        86.77679
386.50        86.32185
386.95        85.67259
387.40        85.02428
387.85        84.45998
388.29        83.86769
388.74        83.35288
389.19        82.85297
389.64        82.36027
390.09        81.90034
390.54        81.49116
390.98        81.13113
391.43         80.8603
391.88        80.65308
392.33        80.48814
392.78        80.29086
393.23         80.0383
393.67        79.83537
394.12         79.7298
394.57        79.33963
395.02        78.80119
395.47         78.7794
395.91        79.16018
396.36          79.107
396.81        78.59304
397.26         78.0889
397.71        77.67065
398.15        77.27503
398.60        77.01662
399.05        76.71113
399.50        76.40202
399.95        76.43817
400.39        76.68706
400.84         76.4264
401.29        75.69618
401.74        75.17226
402.18        74.91599
402.63        74.51208
403.08         74.0649
403.53        73.88949
403.97        73.99287
404.42        74.28098
404.87        74.57565
405.32        74.58793
405.76        74.25843
406.21        73.71969
406.66        73.11718
407.11        72.74946
407.55        72.71772
408.00         72.7148
408.45        72.71072
408.90        73.08804
409.34        73.56326
409.79        73.13731
410.24        72.05805
410.68        71.52884
411.13        71.63944
411.58        71.74901
412.03        71.71243
412.47        71.58724
412.92        71.31714
413.37        70.93538
413.81        70.57003
414.26        70.46677
414.71        70.63434
415.15        71.03169
415.60        71.48256
416.05        71.75363
416.49        71.77116
416.94        71.59241
417.39        71.34165
417.83        71.19681
418.28        71.21466
418.73        71.34038
419.17        71.50076
419.62        71.58401
420.07        71.54266
420.51        71.38922
420.96        71.21994
421.41        71.07091
421.85        70.93326
422.30        71.00344
422.74        71.09781
423.19        70.75033
423.64        70.05629
424.08        69.77733
424.53        69.97767
424.98        70.12743
425.42        70.20942
425.87        70.70301
426.31        71.39344
426.76        71.31113
427.21        70.58993
427.65        70.33005
428.10        70.53991
428.54        70.53767
428.99        70.36825
429.44        70.11083
429.88        69.97111
430.33        70.60152
430.77        71.60863
431.22        72.13947
431.66        71.99424
432.11        71.06191
432.56        69.77618
433.00        69.51202
433.45        70.48766
433.89        71.39186
434.34        71.42973
434.78         72.6663
435.23        71.93367
435.67        69.56439
436.12        70.06671
436.57        69.96822
437.01        70.45074
437.46        70.94412
437.90        70.78609
438.35        69.41201
438.79        70.09072
439.24        69.95234
439.68        69.97375
440.13        70.22008
440.57        70.67137
441.02        70.81721
441.46         70.6564
441.91        71.13722
442.35        71.90539
442.80        71.66948
443.24        70.65244
443.69        70.57498
444.13        71.36054
444.58        71.63947
445.02        71.36905
445.47        71.32177
445.91        71.54761
446.36        71.79549
446.80        72.03903
447.24        72.33263
447.69         72.5873
448.13        72.64376
448.58        72.49799
449.02        72.17818
449.47        71.79811
449.91        71.52625
450.36         71.4373
450.80        71.43684
451.25        71.49526
451.69        71.67505
452.13        71.65163
452.58        71.76161
453.02        71.88116
453.47         71.9146
453.91        71.84266
454.36        71.73541
454.80        71.61634
455.24        71.35409
455.69        70.95518
456.13         70.6855
456.58        70.72887
457.02        69.83192
457.46        70.30456
457.91        70.32105
458.35        70.36615
458.79        70.18671
459.24        69.83102
459.68        69.26437
460.13        68.68219
460.57        68.46658
461.01        68.72984
461.46        68.59616
461.90        69.20309
462.34        69.52534
462.79         69.5732
463.23        69.72722
463.68        69.77296
464.12        69.53217
464.56        69.00549
465.01        68.17265
465.45        67.28297
465.89        67.24534
466.34          67.839
466.78        68.01044
467.22        67.73482
467.67        67.21299
468.11        67.24915
468.55        67.33631
468.99        67.56782
469.44        67.50818
469.88        67.14686
470.32         66.7897
470.77        66.52402
471.21        66.34412
471.65        66.26428
472.10        66.29449
472.54         66.3841
472.98        66.40507
473.42        66.31358
473.87        66.31609
474.31        66.32932
474.75        65.91468
475.20        65.28423
475.64        65.27773
476.08        65.81181
476.52        65.91455
476.97        65.50006
477.41        65.30305
477.85        65.51899
478.29        64.91338
478.74        65.34873
479.18        65.83144
479.62        65.31623
480.06        65.26647
480.50        65.17287
480.95        65.19847
481.39        65.37891
481.83        64.64982
482.27        64.78544
482.72        65.13274
483.16        64.96354
483.60        64.75494
484.04        65.00894
484.48        65.17406
484.93        65.26699
485.37        65.14585
485.81        64.82549
486.25        64.27987
486.69        66.26461
487.14        67.30907
487.58        65.81471
488.02        65.47454
488.46        64.23833
488.90        63.67319
489.34        64.74194
489.79         65.8269
490.23        65.31364
490.67        64.76944
491.11        63.98357
491.55        63.80865
491.99        64.18529
492.43        64.15656
492.88        63.73186
493.32        63.63262
493.76        63.85611
494.20        63.98314
494.64        63.97524
495.08        63.95576
495.52        63.92385
495.96        63.86614
496.41        63.78938
496.85         63.7243
497.29        63.57606
497.73        63.56796
498.17        62.96342
498.61        62.89518
499.05        63.11051
499.49        63.43795
499.93        63.53226
500.37        63.54382
500.82        63.44381
501.26        63.37047
501.70        63.39231
502.14        63.60061
502.58        63.91407
503.02        64.03852
503.46        63.94001
503.90        63.79766
504.34        63.63845
504.78        63.42469
505.22        63.17831
505.66        62.94011
506.10         62.7645
506.54        62.66074
506.98        62.62238
507.42         62.8822
507.86        62.98676
508.30        63.03746
508.74        63.07256
509.18        62.97854
509.62        62.85072
510.06        62.76363
510.50        62.74451
510.94        62.75978
511.38        62.79271
511.82        62.82197
512.26        62.83891
512.70        62.85725
513.14        62.86359
513.58        62.85661
514.02        62.84007
514.46        62.76512
514.90        62.65063
515.34        62.76494
515.78        62.74017
516.22        62.85592
516.66        62.94838
517.10        62.94047
517.54        62.81593
517.98        62.61402
518.42        62.39295
518.86        62.23598
519.30        62.16949
519.74        62.16441
520.18        62.20497
520.62        62.26274
521.06        62.32569
521.50        62.41337
521.93        62.49948
522.37        62.51943
522.81        62.47419
523.25        62.36784
523.69        62.27431
524.13         62.3162
524.57        62.50291
525.01        62.78424
525.45        63.04795
525.89        63.11147
526.32        62.93185
526.76        62.59827
527.20        62.20219
527.64        61.89132
528.08        61.71774
528.52        61.63834
528.96        61.64923
529.40        61.74258
529.83        61.89399
530.27        62.10983
530.71        62.32141
531.15        62.42089
531.59        62.38714
532.03        62.24392
532.46        62.04627
532.90        61.93435
533.34        61.92854
533.78        61.95139
534.22        61.97173
534.66        62.01612
535.09         62.0241
535.53        61.87747
535.97        61.60114
536.41        61.39231
536.85        61.27623
537.28        61.14346
537.72        61.04263
538.16        61.09972
538.60        61.31474
539.04        61.64407
539.47        61.96484
539.91        62.12732
540.35        62.08614
540.79        61.89286
541.22        61.64319
541.66        61.51418
542.10        61.54222
542.54        61.67041
542.97        61.82169
543.41        61.90502
543.85        61.88144
544.29        61.79618
544.72        61.66807
545.16         61.5495
545.60        61.44926
546.04        61.38625
546.47        61.37037
546.91        61.36801
547.35        61.40816
547.79        61.57273
548.22         61.7983
548.66        61.97526
549.10        62.08171
549.53        61.90356
549.97        61.54313
550.41        61.24228
550.84        61.09003
551.28        61.15113
551.72        61.35627
552.15        61.41779
552.59        61.31838
553.03        61.39336
553.46         61.4182
553.90        61.44253
554.34        61.38545
554.77        61.40835
555.21        61.42209
555.65        61.35171
556.08        61.51774
556.52        61.57345
556.96         61.5905
557.39         61.6507
557.83        61.70479
558.27        61.45821
558.70        60.99512
559.14        60.76242
559.57        60.77915
560.01        60.83371
560.45        60.89879
560.88        61.03019
561.32        61.20378
561.75        61.35226
562.19        61.44821
562.63        61.31827
563.06        61.05041
563.50          61.032
563.93        61.18888
564.37        61.26924
564.80        61.26204
565.24         61.1185
565.68        60.74229
566.11        61.33422
566.55        60.70934
566.98        60.54626
567.42        60.33957
567.85        60.56332
568.29        61.14845
568.72        61.47189
569.16         61.5565
569.60        61.96785
570.03        61.93932
570.47        62.17783
570.90        62.54024
571.34        61.69848
571.77        62.32063
572.21         62.5797
572.64        62.26897
573.08        62.80291
573.51        61.60718
573.95        61.72615
574.38        62.56012
574.82        62.44736
575.25        62.27925
575.69        62.39868
576.12        62.68543
576.56        61.83657
576.99        61.94817
577.42        62.35313
577.86        62.18791
578.29        62.98886
578.73        63.23263
579.16        63.08845
579.60        62.28993
580.03         62.1991
580.47        62.00752
580.90        62.91844
581.33        62.59214
581.77        62.99628
582.20        62.79395
582.64        63.66157
583.07          63.056
583.51        62.64825
583.94          62.038
584.37        62.07214
584.81        62.60785
585.24        62.72603
585.68        62.32358
586.11         62.4989
586.54        62.42607
586.98        61.83036
587.41        61.54961
587.85         61.9206
588.28        62.13063
588.71        62.03742
589.15        61.64168
589.58        61.65108
590.01        61.09734
590.45        60.93189
590.88        62.15499
591.31        62.04169
591.75        61.16912
592.18        60.71551
592.61        60.91258
593.05        61.64753
593.48        62.39209
593.91        62.41236
594.35        62.06634
594.78        61.38183
595.21        60.75793
595.65        61.10034
596.08        62.30045
596.51        62.40495
596.94        61.46638
597.38        61.06221
597.81        61.17668
598.24         62.1781
598.68        61.87848
599.11        61.29253
599.54        62.25607
599.97         61.8736
600.41        61.73775
600.84        61.26412
601.27        61.64681
601.70        61.45468
602.14        61.71939
602.57        61.42914
603.00        61.08995
603.43        60.56971
603.87        61.56159
604.30        61.72682
604.73        61.61811
605.16        60.78704
605.60        61.14808
606.03        60.86308
606.46        60.43553
606.89        60.95155
607.32        61.13903
607.76        60.86272
608.19        61.20267
608.62        61.05801
609.05         60.9777
609.48        60.91296
609.92        61.64629
610.35        61.37559
610.78        60.75449
611.21        60.55169
611.64        60.82917
612.07         61.1437
612.50        61.06155
612.94        61.16667
613.37        61.09825
613.80        60.78986
614.23        60.30468
614.66        60.05944
615.09        60.45949
615.52        60.63631
615.96         60.6216
616.39        60.68903
616.82        60.84352
617.25        60.54761
617.68        60.35955
618.11        60.42388
618.54        60.80239
618.97        60.78943
619.40        60.40502
619.84        60.35617
620.27        60.23391
620.70        60.31289
621.13        60.42126
621.56        59.76741
621.99        59.36301
622.42        59.24341
622.85        59.67458
623.28        59.76736
623.71        59.46189
624.14        59.90787
624.57        60.10712
625.00        59.89275
625.43        60.03709
625.86        59.86585
626.29        59.76915
626.72         59.4131
627.15        59.65989
627.58         59.6797
628.01        59.59982
628.44        59.93151
628.87        59.72209
629.30        59.45251
629.73        59.50205
630.16        59.46622
630.59        59.47787
631.02        59.57612
631.45        59.71822
631.88        59.81447
632.31        59.83552
632.74        59.80916
633.17        59.74471
633.60         59.6591
634.03        59.56578
634.46        59.45702
634.89        59.34106
635.32        59.24758
635.75        59.18737
636.18        59.09339
636.61        58.99694
637.04        58.98195
637.47        59.05256
637.89        59.17772
638.32        59.28719
638.75        59.32353
639.18        59.26948
639.61        59.14309
640.04        59.00273
640.47        58.94272
640.90        58.98515
641.33        59.10362
641.76        59.24379
642.18        59.32267
642.61        59.29589
643.04         59.1939
643.47        59.06524
643.90        58.98803
644.33        58.98003
644.76        59.01855
645.18        59.05369
645.61        58.98867
646.04        58.81908
646.47           58.59
646.90        58.37125
647.33        58.27501
647.75        58.30585
648.18        58.44472
648.61        58.67051
649.04        58.85458
649.47        58.74162
649.89        59.31968
650.32        58.96392
650.75        58.86271
651.18        58.63937
651.61        58.63342
652.03        58.83829
652.46        58.89512
652.89        58.80145
653.32        58.86545
653.74        59.16508
654.17        59.00645
654.60        58.83221
655.03        59.10981
655.46        58.22738
655.88        58.25902
656.31        61.34367
656.74         64.9064
657.16         65.5146
657.59         65.7592
658.02        60.96704
658.45        60.12285
658.87        59.59224
659.30        59.17602
659.73        59.51199
660.15        60.40615
660.58        58.96643
661.01        58.90261
661.44        58.71885
661.86        58.55091
662.29        58.16768
662.72         58.6513
663.14        58.77665
663.57        58.72654
664.00        58.30216
664.42          58.284
664.85        58.69692
665.27         59.0872
665.70        59.31016
666.13          59.411
666.55        59.36309
666.98        59.08604
667.41        58.66208
667.83        58.61926
668.26        58.39157
668.69        58.43103
669.11        58.53228
669.54        58.64463
669.96        58.74706
670.39        58.87889
670.82        59.02085
671.24        59.06806
671.67        59.03762
672.09        59.00587
672.52        59.00454
672.94        59.04109
673.37        59.08021
673.80        58.96268
674.22        58.73438
674.65        58.60118
675.07        58.59927
675.50         58.5956
675.92          58.573
676.35        58.54842
676.77         58.5174
677.20        58.47711
677.62        58.44542
678.05        58.44749
678.47        58.48311
678.90        58.55684
679.32        58.62369
679.75        58.69533
680.17        58.75203
680.60        58.80309
681.02        58.83487
681.45        58.83095
681.87        58.80606
682.30        58.72742
682.72        58.64668
683.15        58.68818
683.57           58.84
684.00        58.89794
684.42        58.87606
684.85        58.95559
685.27        59.12359
685.70        59.27904
686.12        59.36417
686.54        59.35462
686.97        59.23967
687.39        59.03267
687.82        58.78642
688.24        58.61984
688.66        58.56714
689.09        58.55171
689.51        58.64504
689.94        58.70796
690.36        58.75519
690.78         58.7585
691.21        58.75376
691.63        58.85337
692.06        59.03376
692.48        59.13885
692.90        59.12863
693.33        59.08144
693.75        58.99138
694.17        58.76602
694.60        58.52135
695.02        58.47439
695.44         58.6282
695.87        58.98221
696.29        59.37547
696.71        59.22178
697.14        58.64643
697.56        58.49367
697.98        58.78242
698.41        58.86822
698.83        58.73883
699.25        58.82975
699.68        59.05679
700.10        59.11945
700.52        58.96961
700.94        58.70804
701.37        58.45352
701.79        58.40211
702.21        58.58579
702.64        58.91757
703.06        59.28009
703.48        59.47079
703.90         59.4341
704.33        59.24023
704.75        58.96515
705.17        58.72375
705.59        58.57133
706.01        58.47578
706.44        58.45802
706.86        58.57901
707.28        58.81919
707.70        59.12988
708.12        59.45084
708.55        59.73399
708.97        59.89828
709.39        59.88032
709.81        59.51981
710.23        59.37173
710.66        59.41725
711.08        59.50486
711.50        59.55341
711.92        59.52016
712.34        59.39111
712.76        59.19743
713.19        58.99365
713.61        58.89893
714.03        58.93011
714.45        59.05428
714.87        59.23597
715.29        59.42292
715.71        59.58773
716.13        59.73141
716.56        59.82734
716.98        59.91428
717.40        59.96136
717.82        59.96211
718.24        59.90265
718.66        59.76424
719.08        59.56603
719.50        59.34517
719.92        59.15216
720.34        59.05628
720.76        59.07251
721.19        59.15504
721.61        59.32416
722.03        59.56599
722.45        59.85002
722.87        60.16606
723.29        60.40964
723.71         60.4156
724.13        60.16586
724.55         59.7198
724.97        59.23384
725.39        58.97058
725.81        58.99682
726.23        59.21643
726.65        59.51733
727.07        59.84519
727.49         59.9244
727.91        59.98096
728.33        59.98264
728.75         59.9887
729.17        60.01679
729.59        60.03288
730.01         60.0406
730.43        60.05344
730.85        60.06839
731.27        60.08735
731.69        60.08707
732.10        60.02328
732.52        59.89326
732.94        59.72958
733.36        59.58687
733.78        59.44196
734.20        59.30143
734.62        59.37712
735.04        59.72691
735.46        59.32967
735.88        59.93461
736.30         60.1115
736.72        60.34333
737.13        60.52748
737.55        60.60498
737.97        60.64937
738.39        60.62389
738.81        60.39919
739.23        60.05003
739.65        59.90724
740.06        59.97106
740.48        60.02179
740.90        60.03066
741.32        60.15804
741.74         60.3794
742.16        60.55112
742.57        60.64687
742.99        60.69044
743.41        60.67409
743.83        60.57528
744.25        60.40218
744.67        60.14762
745.08        59.91165
745.50         59.8355
745.92        59.95198
746.34        60.22456
746.75        60.50624
747.17        60.53698
747.59        60.27238
748.01        59.80746
748.42        59.32033
748.84        59.06432
749.26        59.12147
749.68        59.46889
750.09         59.9344
750.51        60.17555
750.93        60.11738
751.35        59.91165
751.76        59.64513
752.18        59.42459
752.60        59.29362
753.01        59.24221
753.43        59.23613
753.85        59.22488
754.27        59.19979
754.68        59.23114
755.10        59.35469
755.52        59.40697
755.93        59.71055
756.35        59.94934
756.77        60.20608
757.18        60.39427
757.60        60.50251
758.02        60.66665
758.43        60.81078
758.85        60.45953
759.26         60.3815
759.68        59.87575
760.10        59.37381
760.51        59.86769
760.93        60.27488
761.34        60.63035
761.76        60.56837
762.18        60.48112
762.59        60.45786
763.01        60.41037
763.42        60.52813
763.84        60.56139
764.26        60.55824
764.67         60.6904
765.09        60.89661
765.50        60.76737
765.92        60.39167
766.33         60.1526
766.75        60.04104
767.16        59.89946
767.58        59.70106
768.00        59.60653
768.41        59.66489
768.83         59.7733
769.24         59.9047
769.66        60.23536
770.07        60.62223
770.49        60.47911
770.90        59.97602
771.32        60.13009
771.73        60.84387
772.15        61.01702
772.56        60.61149
772.97        60.22407
773.39          59.993
773.80        59.88243
774.22        59.91351
774.63         60.1378
775.05        60.41409
775.46        60.57478
775.88         60.5439
776.29        60.38697
776.70        60.19463
777.12        60.14204
777.53        60.27666
777.95        60.49977
778.36        60.74516
778.77        60.87205
779.19          60.861
779.60        60.78693
780.02        60.65752
780.43        60.55822
780.84        60.53655
781.26        60.29853
781.67        60.00964
782.09        60.51987
782.50        61.56436
782.91         61.7205
783.33        61.01833
783.74        60.74881
784.15        60.95993
784.57        60.88257
784.98         60.5715
785.39        60.47748
785.81        60.63006
786.22        60.90835
786.63        61.22714
787.04        61.44511
787.46        61.53144
787.87        61.51328
788.28        61.44627
788.70         61.3983
789.11        61.36862
789.52        61.35134
789.93        61.32737
790.35        61.26134
790.76        61.15938
791.17        61.04031
791.58        60.92232
792.00        60.78162
792.41        60.63944
792.82          60.585
793.23        60.62187
793.65        60.54356
794.06        60.45278
794.47        60.81701
794.88        61.47685
795.29        61.78548
795.71        61.66304
796.12        61.48621
796.53        61.34496
796.94        61.20392
797.35        61.14154
797.76        61.30867
798.18        61.60366
798.59        61.75524
799.00        61.69912
799.41        61.56848
799.82        61.43375
800.23        61.36593
800.64        61.38733
801.06        61.43929
801.47        61.50803
801.88        61.48914
802.29        61.36193
802.70        61.17448
803.11         60.9613
803.52        60.77321
803.93        60.64695
804.34        60.56914
804.75        60.58681
805.17         60.7956
805.58        61.22357
805.99        61.70885
806.40        62.14172
806.81        62.58764
807.22        62.87057
807.63        62.47586
808.04        61.60889
808.45        61.10845
808.86        61.09842
809.27        61.19931
809.68        61.30875
810.09        61.40396
810.50        61.43731
810.91        61.42276
811.32        61.44113
811.73         61.6168
812.14        61.96211
812.55        62.41424
812.96        62.83612
813.37        62.98545
813.78        62.79721
814.19        62.37267
814.60        61.84153
815.01         61.3702
815.42        61.00805
815.83        60.70959
816.24         60.5019
816.65         60.4352
817.05        60.52321
817.46        60.74474
817.87          61.019
818.28        61.16814
818.69        61.15286
819.10        60.99275
819.51        60.81831
819.92         60.8754
820.33        61.21412
820.74        61.74681
821.14        62.28456
821.55        62.52709
821.96        62.40682
822.37        62.01786
822.78        61.53123
823.19          61.237
823.60        61.22829
824.00        61.44314
824.41        61.72552
824.82        61.89991
825.23        61.89177
825.64        61.76143
826.04        61.57968
826.45        61.41748
826.86        61.32213
827.27        61.28141
827.68         61.2541
828.08         61.2029
828.49        61.07512
828.90        60.89851
829.31        60.78482
829.72         60.9116
830.12        61.32159
830.53        61.90903
830.94        62.45988
831.35        62.56778
831.75        62.16129
832.16        61.35879
832.57        60.47456
832.97        59.98931
833.38        60.02948
833.79        60.42872
834.20        61.01417
834.60        61.50866
835.01        61.81212
835.42        62.04221
835.82        62.18535
836.23        62.14386
836.64        61.95213
837.04        61.59453
837.45        61.26756
837.86         61.3609
838.26        61.95969
838.67        62.92498
839.08        63.91684
839.48        64.27284
839.89        63.81945
840.29        62.79262
840.70        61.68378
841.11        61.04298
841.51        61.02081
841.92        61.43013
842.33        62.09347
842.73          62.697
843.14        63.01413
843.54        63.18348
843.95        63.25517
844.35        63.35672
844.76        63.50627
845.17        63.64341
845.57        63.71664
845.98        63.63532
846.38         63.4089
846.79        63.07441
847.19        62.73108
847.60        62.50884
848.00         62.4492
848.41        62.49208
848.81        62.58501
849.22        62.56031
849.62        62.41626
850.03        62.20183
850.43        61.97926
850.84        61.78482
851.24        61.68389
851.65        61.60225
852.05        61.66505
852.46        61.98571
852.86        62.54321
853.27        63.26198
853.67         63.8743
854.07         64.1214
854.48        63.94277
854.88        63.43841
855.29        62.74303
855.69        62.23361
856.10        61.98636
856.50        61.98607
856.90        62.10311
857.31        62.12766
857.71        62.03679
858.12        61.82969
858.52         61.6263
858.92        61.51353
859.33        61.50011
859.73        61.59658
860.13        61.64768
860.54        61.42591
860.94        60.94556
861.34        60.28481
861.75        59.68581
862.15        59.57653
862.55        60.02457
862.96        60.85091
863.36        61.83934
863.76        62.54058
864.17        62.77921
864.57        62.70359
864.97        62.34429
865.38        61.77101
865.78        61.08464
866.18        60.26357
866.58        59.50798
866.99         59.1799
867.39        59.38485
867.79        60.03376
868.19        60.87165
868.60        61.46535
869.00         61.7207
869.40        61.70398
869.80        61.54107
870.21        61.49107
870.61        61.67951
871.01        61.95254
871.41        62.14259
871.81        62.02628
872.22        61.56801
872.62        60.86168
873.02        60.10043
873.42        59.59903
873.82        59.45975
874.22        59.59426
874.63        59.84052
875.03          59.953
875.43        59.84794
875.83        59.61122
876.23        59.34569
876.63        59.20856
877.03        59.24694
877.44        59.37031
877.84        59.53653
878.24        59.71959
878.64        59.83418
879.04        59.72003
879.44          59.492
879.84        59.45002
880.24        59.61208
880.64        59.86391
881.04        59.98644
881.44         59.6619
881.84        58.86223
882.24        57.72828
882.65        56.64497
883.05        56.19582
883.45        56.51142
883.85         57.4252
884.25        58.58229
884.65        59.36433
885.05        59.57445
885.45        59.37813
885.85        59.01617
886.25        58.87359
886.65        59.04624
887.05         59.3816
887.45          59.731
887.85        59.86712
888.25        59.72282
888.65        59.40889
889.04        59.00229
889.44        58.62605
889.84        58.32147
890.24        58.05475
890.64         57.8574
891.04        57.78674
891.44        57.84464
891.84        58.02555
892.24        58.25062
892.64        58.38597
893.04        58.41644
893.44        58.39251
893.83        58.40639
894.23        58.56738
894.63        58.91403
895.03        59.36395
895.43        59.87583
895.83        60.39486
896.23        60.85474
896.63         61.2365
897.02        61.41133
897.42        61.20838
897.82        60.62991
898.22         59.7934
898.62        58.87825
899.01        58.13903
899.41        57.67864
899.81          57.434
900.21         57.4146
900.61        57.61801
901.00        57.99874
901.40        58.53692
901.80        59.08444
902.20        59.39761
902.59         59.4322
902.99        59.24217
903.39        58.95173
903.79        58.78462
904.18        58.79847
904.58        58.91467
904.98         59.1279
905.38        59.43847
905.77        59.81686
906.17        60.28746
906.57          60.673
906.96        60.67393
907.36        60.23529
907.76        59.45932
908.15         58.6704
908.55        58.37183
908.95        58.67402
909.34        59.42553
909.74        60.27341
910.14        60.69993
910.53        60.53752
910.93        59.99709
911.33         59.2389
911.72        58.50103
912.12        57.94872
912.52        57.49792
912.91        57.23505
913.31        57.31099
913.70        57.72571
914.10        58.42865
914.49        59.25566
914.89        59.83004
915.29        60.04739
915.68        59.97205
916.08        59.69701
916.47        59.47286
916.87        59.38689
917.26        59.33604
917.66        59.30728
918.05        59.17871
918.45        58.94289
918.84        58.70713
919.24         58.4621
919.64        58.30649
920.03        58.28906
920.42        58.33718
920.82        58.51471
921.21        58.87573
921.61        59.39039
922.00        60.06884
922.40        60.69483
922.79        61.01419
923.19        60.93143
923.58        60.53634
923.98        60.05363
924.37        59.77596
924.77        59.78663
925.16         59.9683
925.55        60.20892
925.95         60.2884
926.34        60.15611
926.74        59.88641
927.13        59.50982
927.52        59.00455
927.92        58.44995
928.31        57.84351
928.70        57.34837
929.10        57.18597
929.49        57.37728
929.89        57.82783
930.28        58.44518
930.67        58.95439
931.07        59.22937
931.46        59.38745
931.85        59.39157
932.24         59.2468
932.64        59.01884
933.03         58.6668
933.42        58.38481
933.82        58.44315
934.21        58.87785
934.60        59.65954
934.99        60.50611
935.39        60.90386
935.78        60.75151
936.17        60.09641
936.56        59.27819
936.96        58.83258
937.35        58.87614
937.74        59.26458
938.13        59.61961
938.53        59.35717
938.92        58.40492
939.31        57.03707
939.70         55.6937
940.09        54.98536
940.49        55.02619
940.88        55.64317
941.27        56.61121
941.66         57.5001
942.05         58.1185
942.44        58.58353
942.84        58.90215
943.23        59.08982
943.62        59.17493
944.01        59.07034
944.40        58.90657
944.79        58.94374
945.18         59.2127
945.57        59.66431
945.97         59.9905
946.36        59.74495
946.75        58.83759
947.14        57.51594
947.53        56.17877
947.92        55.37613
948.31        55.23762
948.70        55.59318
949.09        56.26976
949.48        56.96178
949.87         57.5148
950.26        57.98051
950.65          58.319
951.04        58.47684
951.43        58.44917
951.82         58.2236
952.21        57.85299
952.60        57.45321
952.99        57.10104
953.38        56.82968
953.77        56.68052
954.16         56.7005
954.55        56.87325
954.94        57.13335
955.33        57.47589
955.72        57.87691
956.11        58.28709
956.50        58.72837
956.89        58.93038
957.28        58.47021
957.66        57.33266
958.05        55.72395
958.44         54.2308
958.83        53.69116
959.22        54.23641
959.61        55.64008
960.00        57.31409
960.39        58.14142
960.78        57.77382
961.16        56.54903
961.55        55.07785
961.94        54.17973
962.33        54.07563
962.72        54.55959
963.11        55.32123
963.49        55.80251
963.88         55.7419
964.27        55.32655
964.66        54.94434
965.04        55.17928
965.43        56.09191
965.82        57.53934
966.21        58.95889
966.60        59.28977
966.98        58.25545
967.37        56.33141
967.76        54.33433
968.15        53.28376
968.53        53.37252
968.92         54.3246
969.31        55.68131
969.69        56.50938
970.08        56.41087
970.47        55.72296
970.86        54.93224
971.24        54.72156
971.63        55.24813
972.02        56.27262
972.40        57.49503
972.79        58.12801
973.17        57.96444
973.56        57.28046
973.95        56.41638
974.33        55.78327
974.72        55.49665
975.11        55.39101
975.49        55.43822
975.88        55.55708
976.26        55.74149
976.65        56.00969
977.04        56.25352
977.42        56.24982
977.81        55.94368
978.19        55.38081
978.58         54.8938
978.96         54.9854
979.35        55.73501
979.74        56.99992
980.12        58.44173
980.51        59.22968
980.89        59.23248
981.28        58.65522
981.66        57.88291
982.05        57.43798
982.43        57.47783
982.82        57.83125
983.20        58.45885
983.59         59.1984
983.97        60.00639
984.35        60.90319
984.74         61.6357
985.12        62.01151
985.51        61.90144
985.89        61.34175
986.28         60.6194
986.66        60.10669
987.04        59.95847
987.43         60.0891
987.81        60.27575
988.20        60.00427
988.58        59.20839
988.96        58.03071
989.35        56.91484
989.73        56.47821
990.12         56.8002
990.50        57.73156
990.88        58.75422
991.27        58.95667
991.65        58.14163
992.03        56.66386
992.42        55.19588
992.80        54.64866
993.18        55.23466
993.56        56.68791
993.95        58.50993
994.33        59.88642
994.71        60.35537
995.10        60.22125
995.48        59.76529
995.86         59.5201
996.24        59.62151
996.63        59.70698
997.01        59.82665
997.39        59.83049
997.77        59.63509
998.15        59.46247
998.54         59.0417
998.92        57.78704
999.30        55.81826
999.68        53.40966
1000.06        51.42413
1000.45        51.06142
1000.83        52.62508
1001.21        55.86477
1001.59        59.98303
1001.97        62.91768
1002.35         63.7496
1002.73        63.03078
1003.12        61.69984
1003.50        60.96758
1003.88        61.25886
1004.26        62.01228
1004.64        63.18416
1005.02        64.64218
1005.40        66.11568
1005.78        67.83983
1006.16        68.88472
1006.54        67.73285
1006.92        64.43751
1007.30         59.6328
1007.69        55.16027
1008.07        53.51407
1008.45        55.34985
1008.83        60.09272
1009.21        66.33051
1009.59        70.42097
1009.97         70.5518
1010.35        67.79457
1010.73        63.39905
1011.11        59.22413
1011.49        56.09401
1011.86        53.58155
1012.24        52.03782
1012.62        51.99788
1013.00        53.44325
1013.38        56.40915
1013.76        60.34533
1014.14        63.45965
1014.52        64.70141
1014.90        64.25133
1015.28        62.64752
1015.66        60.88092
1016.04        59.31636
1016.41        57.72623
1016.79        56.21928
1017.17        55.14609
1017.55        54.59824
1017.93        54.52438
1018.31        54.82349
1018.69        55.23674
1019.06        55.67333
1019.44         56.3003
1019.82        56.66457
1020.20         55.9007
1020.58        53.95179
1020.95        51.15371
1021.33        48.88236
1021.71        48.66525
1022.09        50.69938
1022.46        54.90984
1022.84        60.08716
1023.22        62.85096
1023.60        61.76584
1023.97        57.72937
1024.35        53.47221
1024.73        52.17339
