SpectraSmart Spectrum 2.9.0.0
--------- Device Information -----------
Spectrum Name :  反射率_0
Saving Time :  2024/04/26 23:23:13
Spectro-Module Model Name : SE2030-DUVN
Spectro-Module Serial Number : OS361AC55029948
Wavelength Start : 200
Wavelength End : 1025
Wavelength Unit : Wavelength(nm)
Spectrum Unit : Reflectance(%)
-----------Spectrum Setting ------------
Integration Time : 20ms
Average : 10
Boxcar : 0
Background removal :  enabled
linearity correction :  enabled
SC :  disabled
Intensity correction :  disabled
DWT denoise :  enabled
savitzky-golay :  disabled
FFT :  disabled
Running average :  disabled
Kalman :  disabled
High pass :  disabled
---------------BEGIN--------------------
Wavelength(nm)             Reflectance(%)
200.29               0
200.75        36.36713
201.21         37.7394
201.67        40.26295
202.13        42.93692
202.58        45.59388
203.04        49.28366
203.50        53.75058
203.96        56.84274
204.42        56.88345
204.88         53.4077
205.34        47.78386
205.80        43.75246
206.26        42.54511
206.72        43.19408
207.18        44.24024
207.64        44.01435
208.10        42.27578
208.55         39.5928
209.01        36.04963
209.47        34.75309
209.93        37.19909
210.39        40.90111
210.85        44.72142
211.31         49.5599
211.77        57.39374
212.23        73.36327
212.69        111.3458
213.14         172.647
213.60        165.4659
214.06        118.6506
214.52        87.83424
214.98        73.68405
215.44        67.01367
215.90        62.65289
216.36         60.1348
216.81        59.60686
217.27        61.35353
217.73        66.93571
218.19        74.98756
218.65        76.66157
219.11        69.94861
219.57         60.9322
220.02        55.49097
220.48        57.04141
220.94        65.20303
221.40        80.75833
221.86         103.624
222.32        120.0169
222.77        116.3705
223.23        101.4716
223.69        84.99545
224.15        72.36532
224.61        63.46035
225.06        56.46747
225.52        51.55492
225.98        48.60074
226.44        47.22106
226.90        47.24499
227.36        48.09021
227.81        48.74872
228.27        48.98244
228.73        48.76144
229.19        48.62946
229.65        49.32284
230.10        50.80302
230.56        52.84276
231.02        54.43272
231.48         54.0471
231.93        51.63557
232.39        48.24337
232.85         45.1913
233.31        44.20126
233.77        45.37576
234.22        48.07552
234.68        51.30349
235.14        53.57725
235.60        54.43118
236.05        54.35866
236.51        53.62026
236.97        52.85859
237.43        52.46112
237.88        52.22179
238.34        52.40988
238.80        53.81405
239.26        56.79011
239.71        62.03453
240.17        68.95926
240.63        75.38425
241.08        79.69176
241.54        80.99935
242.00        81.06326
242.46        84.50534
242.91        94.80859
243.37        113.6066
243.83        141.9707
244.28        168.1383
244.74        172.9141
245.20        155.1373
245.66        130.6913
246.11        114.5428
246.57        108.0056
247.03        107.0079
247.48        106.8408
247.94        101.1181
248.40         91.5988
248.85        82.33028
249.31        76.41813
249.77        74.98398
250.22        77.28568
250.68        82.67924
251.14         89.5918
251.59        92.27718
252.05        88.25965
252.51        81.19905
252.96        73.85048
253.42        69.00243
253.88        66.60985
254.33        65.02741
254.79        65.58605
255.25        69.17097
255.70        75.04594
256.16        82.64548
256.62        88.30172
257.07        86.75165
257.53        80.11686
257.99         72.0505
258.44        65.47434
258.90         62.9012
259.35        63.04874
259.81        64.87351
260.27        66.73353
260.72        66.73393
261.18         65.0797
261.63        62.36923
262.09        59.95556
262.55        58.70518
263.00        58.44418
263.46        58.84218
263.91        58.95433
264.37        57.93937
264.83        55.79321
265.28        52.98669
265.74        50.43514
266.19         48.9441
266.65        48.65096
267.11          49.112
267.56        49.78867
268.02        49.84211
268.47         49.0485
268.93        47.73015
269.38        46.17818
269.84        44.88789
270.30        43.98468
270.75        43.27839
271.21        42.71302
271.66        42.16346
272.12        41.57706
272.57        40.98347
273.03        40.33652
273.48        39.53082
273.94        38.61724
274.39        37.60016
274.85         36.6214
275.31        35.74207
275.76         34.9641
276.22        34.31062
276.67         33.7406
277.13        33.28095
277.58         32.8734
278.04        32.53604
278.49        32.18388
278.95        31.81171
279.40        31.35939
279.86        30.89001
280.31        30.37347
280.77        29.87663
281.22        29.37636
281.68        28.92516
282.13        28.49466
282.59        28.12738
283.04        27.79784
283.50        27.52066
283.95        27.29945
284.41        27.15344
284.86         27.0792
285.32        27.08992
285.77        27.13182
286.22        27.19208
286.68        27.25968
287.13         27.2903
287.59        27.32014
288.04        27.36166
288.50        27.43106
288.95        27.49484
289.41         27.5069
289.86        27.33432
290.32        27.01619
290.77        26.60244
291.22          26.249
291.68        26.16595
292.13        26.39405
292.59        26.90182
293.04        27.58893
293.50        28.30632
293.95        29.00339
294.40        29.73191
294.86         30.5608
295.31        31.58744
295.77        32.83377
296.22        34.23379
296.68        35.72795
297.13        37.21796
297.58        38.68593
298.04        40.16842
298.49        41.68875
298.95        43.30022
299.40        45.00226
299.85        46.77346
300.31        48.60651
300.76        50.47384
301.21        52.37035
301.67        54.31722
302.12         56.2682
302.58        58.23536
303.03        60.17635
303.48        62.12085
303.94        64.10204
304.39        66.10657
304.84        68.16217
305.30         70.2695
305.75        72.38543
306.20        74.53635
306.66        76.71622
307.11        78.86324
307.57        80.93632
308.02        82.76535
308.47        84.35838
308.93        85.77779
309.38        87.10389
309.83        88.58096
310.29        90.26526
310.74        92.08184
311.19        93.89173
311.65        95.43232
312.10        96.60474
312.55        97.47115
313.00        98.18661
313.46        99.00539
313.91        99.96827
314.36        101.0318
314.82        102.0503
315.27        102.8075
315.72        103.2389
316.18        103.4559
316.63        103.5921
317.08        103.8989
317.53        104.4451
317.99        105.1483
318.44        105.9104
318.89        106.5373
319.35        106.9633
319.80        107.2442
320.25        107.4547
320.70        107.7199
321.16        108.0692
321.61        108.4979
322.06         108.919
322.51        109.2055
322.97        109.3187
323.42        109.3127
323.87        109.3274
324.32        109.6083
324.78        110.1653
325.23        111.0007
325.68        111.8353
326.13        112.2173
326.59        112.0418
327.04        111.4774
327.49        110.8442
327.94        110.6858
328.39        111.1374
328.85        112.0008
329.30        113.1152
329.75        113.9201
330.20         114.228
330.66        114.1697
331.11        113.9945
331.56        114.0247
332.01        114.3691
332.46        114.8904
332.92        115.4246
333.37        115.8802
333.82        116.1407
334.27        116.3084
334.72        116.4082
335.17        116.4537
335.63        116.4763
336.08        116.5385
336.53        116.7489
336.98        117.3359
337.43        118.3276
337.88        119.6226
338.34        121.0168
338.79        122.2869
339.24        123.2542
339.69        123.9623
340.14         124.368
340.59        124.4389
341.05        124.2532
341.50        123.8379
341.95        123.4203
342.40        123.3463
342.85        123.7025
343.30        124.4133
343.75        125.3163
344.20         126.113
344.66        126.6991
345.11        127.1401
345.56        127.4721
346.01        127.7671
346.46        128.0645
346.91        128.3361
347.36         128.588
347.81        128.8558
348.26        129.1329
348.72        129.3927
349.17        129.6461
349.62        129.9445
350.07        130.2774
350.52         130.656
350.97        130.8895
351.42        130.6745
351.87        130.0009
352.32        128.9888
352.77        128.0224
353.22        127.6635
353.67        127.9984
354.13         128.838
354.58        129.7916
355.03        130.1563
355.48        129.7397
355.93        128.7526
356.38         127.562
356.83        126.7216
357.28        126.3605
357.73        126.2878
358.18        126.2497
358.63        125.8541
359.08         125.003
359.53        123.8537
359.98        122.6019
360.43        121.5059
360.88        120.6286
361.33        119.8862
361.78        119.1571
362.23         118.264
362.68        117.1857
363.13        116.0118
363.58        114.8702
364.03        113.9395
364.48        113.2448
364.93        112.6985
365.38        112.2064
365.83        111.6284
366.28        110.9188
366.73        110.1321
367.18        109.2652
367.63        108.3089
368.08        107.2859
368.53        106.2031
368.98        105.1599
369.43        104.3141
369.88        103.6936
370.33         103.258
370.78        102.8868
371.23        102.3769
371.68        101.6705
372.13        100.8154
372.58        99.91341
373.03        99.13044
373.48        98.50117
373.93        97.96327
374.38        97.41878
374.83        96.72426
375.28        95.85138
375.72        94.84086
376.17        93.84147
376.62        92.95091
377.07        92.21676
377.52        91.63839
377.97         91.1538
378.42        90.67747
378.87        90.18894
379.32        89.67434
379.77          89.271
380.22        89.18071
380.67        89.39219
381.11        89.85782
381.56        90.18033
382.01         89.8003
382.46        88.65852
382.91        87.02275
383.36        85.39321
383.81        84.45233
384.26        84.31194
384.71        84.73604
385.15        85.42529
385.60        85.84959
386.05        85.82534
386.50        85.50468
386.95        84.95641
387.40        84.29685
387.85        83.60658
388.29         82.8007
388.74        82.07126
389.19        81.48233
389.64        81.03728
390.09        80.71511
390.54        80.44669
390.98        80.08797
391.43        79.66057
391.88        79.20802
392.33        78.78008
392.78        78.43462
393.23         78.1797
393.67        77.97021
394.12        77.86077
394.57        77.72331
395.02        77.56393
395.47        77.50935
395.91        77.51058
396.36        77.32705
396.81        76.97634
397.26         76.5911
397.71        76.20376
398.15        75.85368
398.60         75.6503
399.05        75.32326
399.50        74.95657
399.95        75.11483
400.39        75.59833
400.84        75.29696
401.29        74.30391
401.74        73.72659
402.18        73.65165
402.63        73.42459
403.08        73.07925
403.53        72.92341
403.97        72.95357
404.42        73.10271
404.87        73.23782
405.32        73.14102
405.76        72.77044
406.21        72.22418
406.66        71.67864
407.11        71.43642
407.55        71.57792
408.00        71.93015
408.45        72.32136
408.90         72.5396
409.34        72.41991
409.79        71.80528
410.24        70.95017
410.68        70.43876
411.13        70.36528
411.58        70.46741
412.03        70.60583
412.47        70.63113
412.92        70.45771
413.37        70.17725
413.81        69.87579
414.26        69.73579
414.71        69.76603
415.15        69.93235
415.60        70.13876
416.05        70.30585
416.49        70.40263
416.94        70.44504
417.39        70.46271
417.83        70.48763
418.28        70.53214
418.73        70.56889
419.17        70.60059
419.62        70.64103
420.07        70.68034
420.51        70.69923
420.96        70.69075
421.41        70.58086
421.85        70.35093
422.30        70.11875
422.74        69.86972
423.19        69.66286
423.64        69.49529
424.08        69.41084
424.53        69.42886
424.98        69.56068
425.42        69.79933
425.87         70.2237
426.31        70.67606
426.76        70.60153
427.21        70.09878
427.65        69.86638
428.10        69.94987
428.54        69.99186
428.99        70.05154
429.44        70.05413
429.88        70.07594
430.33        70.71813
430.77        71.60705
431.22        71.61111
431.66        71.04431
432.11        70.26676
432.56        69.69148
433.00         69.6192
433.45        70.12268
433.89         70.8436
434.34         71.2044
434.78        71.84917
435.23        71.22036
435.67        69.72456
436.12        69.82047
436.57        69.87647
437.01        70.44985
437.46        70.76479
437.90        70.87434
438.35        69.90685
438.79        70.56486
439.24        70.50199
439.68         70.4696
440.13        70.52619
440.57        70.75916
441.02        70.86522
441.46        70.85381
441.91        71.67065
442.35         72.7906
442.80        72.44509
443.24        70.97974
443.69        70.85165
444.13        71.97385
444.58        72.35308
445.02        71.93978
445.47        71.89031
445.91        72.23441
446.36        72.50251
446.80        72.66057
447.24        72.82842
447.69        72.97327
448.13        73.02005
448.58        72.97921
449.02        72.84188
449.47        72.65897
449.91        72.48895
450.36        72.37907
450.80        72.29305
451.25        72.26494
451.69        72.28583
452.13        72.36103
452.58        72.47824
453.02        72.59386
453.47        72.64541
453.91        72.60664
454.36        72.50253
454.80        72.34669
455.24        72.10036
455.69        71.78531
456.13        71.53799
456.58        71.44519
457.02        70.96488
457.46        70.74316
457.91        70.97427
458.35        71.53463
458.79        71.52811
459.24        70.95091
459.68         70.1866
460.13        69.51938
460.57        69.20638
461.01        69.37381
461.46        69.69175
461.90        69.91514
462.34        70.90121
462.79        70.20821
463.23        70.39119
463.68        70.63907
464.12        70.47681
464.56        69.88599
465.01        69.25873
465.45        68.71525
465.89        68.41083
466.34        68.33505
466.78        68.50896
467.22        68.84158
467.67        68.50262
468.11        68.24468
468.55        68.23161
468.99        68.59007
469.44        68.59579
469.88        68.23567
470.32        67.91013
470.77        67.69742
471.21        67.55803
471.65        67.50587
472.10        67.55365
472.54         67.6436
472.98        67.66819
473.42        67.58958
473.87         67.5394
474.31        67.46841
474.75        67.14645
475.20        66.71425
475.64        66.66164
476.08        66.95038
476.52        66.95162
476.97        66.58868
477.41        66.44442
477.85        66.72555
478.29        66.11366
478.74        66.59605
479.18        67.40626
479.62        66.88953
480.06        66.93452
480.50        66.82014
480.95        66.98755
481.39        67.18336
481.83        66.17701
482.27        66.64957
482.72        66.70456
483.16        66.50486
483.60        66.52607
484.04        66.59447
484.48        66.72524
484.93        66.69775
485.37        66.95104
485.81        65.99272
486.25        66.29445
486.69        68.08858
487.14          68.974
487.58        67.21896
488.02        66.88391
488.46        65.62378
488.90        65.72008
489.34        66.64906
489.79        67.66395
490.23        66.62977
490.67        66.11295
491.11        65.74556
491.55        65.62663
491.99        65.70798
492.43        65.58174
492.88         65.2786
493.32        65.21013
493.76        65.38181
494.20        65.52024
494.64        65.59417
495.08        65.69748
495.52        65.79002
495.96        65.80198
496.41        65.74301
496.85        65.62371
497.29        65.39118
497.73        65.49678
498.17        65.10271
498.61        64.92464
499.05        64.76669
499.49        64.97228
499.93        65.21146
500.37        65.33057
500.82         65.2396
501.26        65.13428
501.70        65.07391
502.14        65.13526
502.58        65.29835
503.02        65.37614
503.46        65.35705
503.90        65.38384
504.34        65.44096
504.78        65.41974
505.22        65.31444
505.66        65.16385
506.10          65.007
506.54        64.89832
506.98        64.85331
507.42        64.85874
507.86        64.88272
508.30        64.87302
508.74        64.81716
509.18        64.73075
509.62        64.64622
510.06        64.61574
510.50        64.64937
510.94        64.72727
511.38        64.81621
511.82        64.86295
512.26        64.85613
512.70        64.81757
513.14        64.77087
513.58        64.75468
514.02        64.77939
514.46        64.82297
514.90        64.88332
515.34        64.96036
515.78        65.04093
516.22        65.11996
516.66        65.15868
517.10        65.09413
517.54        64.92412
517.98        64.68237
518.42        64.42222
518.86        64.22894
519.30        64.13165
519.74        64.10629
520.18         64.1496
520.62        64.25101
521.06        64.39452
521.50        64.58243
521.93        64.76502
522.37        64.84042
522.81        64.79729
523.25        64.65372
523.69        64.48317
524.13        64.40807
524.57        64.45032
525.01        64.56722
525.45        64.68939
525.89        64.70196
526.32        64.57282
526.76        64.36871
527.20        64.13139
527.64        63.92829
528.08        63.78918
528.52        63.69367
528.96        63.66072
529.40        63.72049
529.83        63.86303
530.27        64.08164
530.71        64.30798
531.15        64.43832
531.59        64.44618
532.03        64.35061
532.46        64.19672
532.90        64.10722
533.34        64.09872
533.78        64.10369
534.22        64.08347
534.66        64.05728
535.09        63.96852
535.53        63.69693
535.97        63.31394
536.41        63.09196
536.85        63.06491
537.28        63.10103
537.72        63.17607
538.16        63.29862
538.60        63.44563
539.04         63.6073
539.47        63.73368
539.91        63.82419
540.35        63.86457
540.79        63.79741
541.22        63.63719
541.66        63.75356
542.10        63.64505
542.54        63.70644
542.97         63.7477
543.41        63.74734
543.85        63.68534
544.29        63.59506
544.72        63.49951
545.16         63.4409
545.60        63.41772
546.04        63.46697
546.47        63.57983
546.91        63.62592
547.35        63.63972
547.79        63.86525
548.22        64.21384
548.66        64.32417
549.10         64.2425
549.53        64.11613
549.97        63.99813
550.41        63.77006
550.84        63.52487
551.28        63.45745
551.72        63.53259
552.15        63.66343
552.59          63.894
553.03        63.61038
553.46        64.13742
553.90        64.14733
554.34         64.0209
554.77        63.84105
555.21         63.7195
555.65         63.5539
556.08        63.74181
556.52        63.89025
556.96        64.02377
557.39        64.16136
557.83        64.22773
558.27        63.89868
558.70        63.30745
559.14        63.05453
559.57        63.14507
560.01        63.21942
560.45         63.2415
560.88        63.32977
561.32         63.4863
561.75        63.67949
562.19        63.87243
562.63        63.82526
563.06        63.60003
563.50        63.60055
563.93        63.74943
564.37        63.76909
564.80        63.68122
565.24        63.53834
565.68        63.23656
566.11        63.88592
566.55        63.19905
566.98        63.10242
567.42        63.03525
567.85        63.15286
568.29        63.48121
568.72        63.94484
569.16        64.51184
569.60        64.96867
570.03         64.8257
570.47        64.99924
570.90        65.52473
571.34         64.3154
571.77        64.98795
572.21        65.46296
572.64        65.18736
573.08        65.41943
573.51        64.77184
573.95        64.79191
574.38        65.29893
574.82        65.28987
575.25        65.07014
575.69        65.11957
576.12        65.20129
576.56        64.79495
576.99        64.65164
577.42        64.93139
577.86        65.14082
578.29        66.12486
578.73        66.29442
579.16        66.00285
579.60        64.93782
580.03        64.80423
580.47        64.83615
580.90        65.55704
581.33        65.57169
581.77        66.07822
582.20        65.91989
582.64        66.83713
583.07        66.22407
583.51        65.40658
583.94        65.15634
584.37        65.01411
584.81        65.22533
585.24        65.31782
585.68         65.1193
586.11        65.43935
586.54        65.53498
586.98        64.63186
587.41        64.17626
587.85        64.70623
588.28        64.86922
588.71        64.91071
589.15        64.22426
589.58        64.91507
590.01        64.35884
590.45         64.1509
590.88        65.03815
591.31        64.85883
591.75        64.20477
592.18        63.79616
592.61        63.90302
593.05        64.37386
593.48        65.42731
593.91        65.30623
594.35        64.85339
594.78        64.01895
595.21        63.53755
595.65        63.97491
596.08        65.26174
596.51        65.18156
596.94        64.29238
597.38        63.78596
597.81         63.7722
598.24        64.99278
598.68        64.32304
599.11        64.06535
599.54        65.25778
599.97        65.26445
600.41         64.4805
600.84        63.95898
601.27        64.64719
601.70        64.29353
602.14        64.60905
602.57        64.35442
603.00        64.24579
603.43        63.63255
603.87         64.4629
604.30        64.82425
604.73        64.48138
605.16        63.50957
605.60        63.85686
606.03        63.61111
606.46        63.35496
606.89         63.6395
607.32        64.09901
607.76        63.71484
608.19        64.18932
608.62        64.07601
609.05        64.01165
609.48        63.90234
609.92        64.64874
610.35        64.06747
610.78        63.99286
611.21        63.60415
611.64        63.76569
612.07        63.97749
612.50        63.95082
612.94         63.9991
613.37        63.97986
613.80        63.64923
614.23        63.12544
614.66         63.1112
615.09         63.5755
615.52        63.82887
615.96        63.75423
616.39        63.84332
616.82        64.12973
617.25        63.49654
617.68        63.42988
618.11        63.42765
618.54        63.82019
618.97        63.88067
619.40        63.62268
619.84        63.46914
620.27        63.52288
620.70        63.53576
621.13        63.48222
621.56         63.0101
621.99        62.41345
622.42        62.30515
622.85        62.50481
623.28        62.55072
623.71        62.34931
624.14        62.56555
624.57        62.73241
625.00        62.87868
625.43        62.82425
625.86        62.84303
626.29        63.00793
626.72        62.48865
627.15        62.83429
627.58        62.80085
628.01        62.78962
628.44        62.72629
628.87        62.64359
629.30         62.4659
629.73         62.1916
630.16        62.56712
630.59        62.38178
631.02        62.61096
631.45        62.83836
631.88        62.98988
632.31        63.02365
632.74        62.97724
633.17        62.87469
633.60        62.72551
634.03         62.5537
634.46        62.35603
634.89        62.16055
635.32         62.0294
635.75        61.97865
636.18        61.92697
636.61        61.88828
637.04        61.91825
637.47        62.01054
637.89        62.14302
638.32        62.23947
638.75         62.2379
639.18        62.12582
639.61        61.92229
640.04        61.71495
640.47        61.64483
640.90        61.74144
641.33        61.96647
641.76        62.22607
642.18        62.36935
642.61        62.33318
643.04        62.16763
643.47        61.95887
643.90        61.84628
644.33        61.86492
644.76        61.97445
645.18        62.09624
645.61        62.08598
646.04        61.92452
646.47        61.67221
646.90        61.42507
647.33        61.31744
647.75        61.35657
648.18        61.55834
648.61        61.88008
649.04        61.98788
649.47        61.78942
649.89         62.3802
650.32        62.09721
650.75        61.98777
651.18        61.69063
651.61        61.80592
652.03        62.28537
652.46        62.47163
652.89        62.33671
653.32         62.3096
653.74        62.52747
654.17        62.11722
654.60        62.45962
655.03        62.21117
655.46         61.5383
655.88        61.82372
656.31        64.34936
656.74         68.8496
657.16        69.32604
657.59        69.36135
658.02        64.43476
658.45        63.85771
658.87        62.50349
659.30        62.66715
659.73        62.03958
660.15        62.58463
660.58        62.07149
661.01        62.01004
661.44        61.87786
661.86        61.64894
662.29         61.3097
662.72        61.64521
663.14        61.46596
663.57        61.45586
664.00        61.34037
664.42        61.44511
664.85        61.77221
665.27        62.13796
665.70        62.40464
666.13        62.50198
666.55        62.40591
666.98         62.0602
667.41        61.57985
667.83        61.56699
668.26        61.43093
668.69        61.62302
669.11         61.8746
669.54         62.0574
669.96        62.13414
670.39        62.14958
670.82        62.13181
671.24        62.11841
671.67        62.12868
672.09        62.06476
672.52        61.98347
672.94        62.09604
673.37        62.33638
673.80        62.32918
674.22        62.10851
674.65        62.01362
675.07         62.0785
675.50        62.08592
675.92        62.02066
676.35        61.94703
676.77        61.86763
677.20        61.76577
677.62        61.67494
678.05        61.64586
678.47        61.68539
678.90        61.78862
679.32        61.90847
679.75        61.97882
680.17        61.98069
680.60        61.93484
681.02          61.889
681.45        61.91943
681.87        62.05196
682.30        62.23611
682.72        62.43086
683.15        62.56109
683.57        62.60176
684.00        62.50344
684.42        62.34018
684.85        62.29554
685.27         62.3879
685.70        62.54823
686.12        62.70388
686.54         62.7781
686.97        62.74302
687.39        62.63113
687.82        62.48369
688.24        62.38462
688.66         62.3556
689.09        62.37164
689.51        62.41582
689.94        62.43433
690.36         62.4209
690.78        62.37121
691.21        62.32195
691.63        62.33983
692.06         62.4263
692.48        62.53162
692.90        62.59899
693.33        62.57957
693.75        62.46225
694.17        62.22947
694.60        61.98601
695.02         61.9342
695.44        62.08475
695.87         62.3428
696.29        62.60833
696.71        62.62307
697.14          62.417
697.56        62.29225
697.98        62.31159
698.41        62.33125
698.83        62.35195
699.25        62.52143
699.68        62.73334
700.10        62.79388
700.52        62.65122
700.94        62.37982
701.37        62.09769
701.79        61.99866
702.21        62.11954
702.64        62.38531
703.06        62.69595
703.48        62.86963
703.90        62.85664
704.33        62.71993
704.75        62.52465
705.17         62.3669
705.59        62.28796
706.01        62.25242
706.44         62.2704
706.86        62.38065
707.28        62.56501
707.70        62.80672
708.12        63.04799
708.55        63.20737
708.97        63.25102
709.39        63.13245
709.81        62.92545
710.23         62.8348
710.66        62.89567
711.08        63.04047
711.50        63.16687
711.92        63.15062
712.34        62.97058
712.76        62.68793
713.19        62.38111
713.61        62.21521
714.03        62.22434
714.45         62.3591
714.87        62.59047
715.29        62.87741
715.71        63.18384
716.13        63.50361
716.56        63.76267
716.98        63.92144
717.40        63.92844
717.82        63.80226
718.24        63.57773
718.66        63.31987
719.08         63.0749
719.50         62.8551
719.92        62.70116
720.34        62.66382
720.76        62.74533
721.19        62.90847
721.61        63.14441
722.03        63.38562
722.45        63.59139
722.87        63.75941
723.29        63.83912
723.71        63.75908
724.13        63.52456
724.55        63.17374
724.97        62.80269
725.39        62.57545
725.81        62.54079
726.23        62.63683
726.65        62.81479
727.07         63.1285
727.49        63.31401
727.91        63.56835
728.33        63.80153
728.75        63.98466
729.17        64.10073
729.59        64.13646
730.01        64.11426
730.43        64.07959
730.85        64.04607
731.27        64.00962
731.69         63.9483
732.10        63.82165
732.52         63.6303
732.94        63.41231
733.36        63.24052
733.78         63.1067
734.20        63.01977
734.62         63.2029
735.04        63.67926
735.46        63.30297
735.88        63.92413
736.30        64.01307
736.72        64.14562
737.13        64.31241
737.55        64.44965
737.97        64.65701
738.39        64.81445
738.81        64.43912
739.23        63.71492
739.65        63.63707
740.06        64.12704
740.48        64.29401
740.90        64.08424
741.32        64.03907
741.74        64.18764
742.16        64.29103
742.57        64.34109
742.99        64.38412
743.41        64.40784
743.83        64.37704
744.25        64.29124
744.67        64.14598
745.08        64.00151
745.50        63.93895
745.92        63.98155
746.34        64.09808
746.75        64.22336
747.17        64.23811
747.59        64.13047
748.01        63.94758
748.42        63.74764
748.84        63.65733
749.26        63.70967
749.68        63.75313
750.09        63.78712
750.51        64.05887
750.93        64.42876
751.35        64.36665
751.76         63.9222
752.18        63.65214
752.60        63.59158
753.01        63.44291
753.43        63.22108
753.85        63.12871
754.27        63.19011
754.68         63.3686
755.10        63.60847
755.52        63.80992
755.93        63.92956
756.35        63.98182
756.77        64.06312
757.18        64.15869
757.60        64.26129
758.02        64.67627
758.43        65.29333
758.85        64.48837
759.26        64.56695
759.68        63.90421
760.10        64.13525
760.51        64.11938
760.93        64.11824
761.34        64.13239
761.76        64.17141
762.18        64.43906
762.59        64.86071
763.01        64.91179
763.42         64.6694
763.84        64.59669
764.26        64.74996
764.67         64.8141
765.09        64.78017
765.50        64.66341
765.92        64.49852
766.33        64.26934
766.75        63.98379
767.16        63.81768
767.58        63.76135
768.00        63.78957
768.41        63.90313
768.83        64.02956
769.24        64.14049
769.66        64.33558
770.07        64.54062
770.49        64.45592
770.90        64.18701
771.32        64.31277
771.73        64.78089
772.15        64.93137
772.56        64.74632
772.97        64.56797
773.39        64.45898
773.80        64.38125
774.22        64.33401
774.63         64.3765
775.05        64.42698
775.46        64.42739
775.88        64.33508
776.29        64.18977
776.70        64.05925
777.12        64.07552
777.53        64.26722
777.95        64.55128
778.36        64.84294
778.77        64.96398
779.19        64.89533
779.60        64.71991
780.02        64.48679
780.43        64.36197
780.84        64.40897
781.26        64.27381
781.67        64.09118
782.09        64.73363
782.50        65.87857
782.91        65.94653
783.33        65.01511
783.74        64.61383
784.15        64.81973
784.57          64.758
784.98        64.48421
785.39        64.43259
785.81        64.65554
786.22        65.17746
786.63        65.81174
787.04        66.10948
787.46        66.01342
787.87         65.6945
788.28        65.33397
788.70        65.14959
789.11         65.1786
789.52        65.36647
789.93        65.60684
790.35        65.71595
790.76        65.65676
791.17        65.49561
791.58         65.2906
792.00        65.09043
792.41        64.94072
792.82        64.87077
793.23        64.89241
793.65        64.87573
794.06        64.89327
794.47        65.29501
794.88        65.90072
795.29        66.13615
795.71        65.92084
796.12        65.54742
796.53        65.17242
796.94        64.99234
797.35         65.0939
797.76        65.42844
798.18          65.825
798.59        66.04471
799.00         65.9959
799.41        65.75545
799.82        65.45496
800.23        65.31069
800.64        65.37753
801.06        65.55381
801.47        65.77705
801.88        65.85934
802.29        65.74929
802.70        65.51243
803.11         65.2308
803.52         65.0315
803.93        64.97424
804.34        65.02763
804.75        65.16457
805.17        65.39336
805.58        65.73344
805.99        65.95559
806.40         66.0727
806.81        66.60429
807.22        67.30032
807.63        67.01332
808.04        65.94976
808.45        65.45795
808.86        65.66671
809.27        65.88322
809.68        65.96946
810.09        66.00981
810.50         65.9607
810.91         65.8078
811.32        65.67833
811.73        65.77316
812.14        66.12305
812.55        66.65551
812.96        67.20238
813.37        67.44745
813.78        67.29944
814.19        66.88454
814.60        66.34456
815.01         65.8646
815.42        65.50218
815.83        65.19719
816.24        64.99394
816.65        64.97772
817.05         65.1626
817.46        65.51364
817.87        65.90079
818.28        66.06585
818.69        65.95629
819.10          65.616
819.51        65.23197
819.92        65.15542
820.33        65.47208
820.74        66.06408
821.14        66.70657
821.55        67.03725
821.96        66.96679
822.37        66.61192
822.78        66.14138
823.19        65.83939
823.60         65.8043
824.00        65.97236
824.41        66.21465
824.82        66.41544
825.23        66.51092
825.64        66.54364
826.04           66.54
826.45        66.49559
826.86        66.43377
827.27        66.35496
827.68         66.2458
828.08        66.12028
828.49        65.94247
828.90        65.73612
829.31         65.5871
829.72        65.62932
830.12        65.90272
830.53        66.31489
830.94         66.7135
831.35         66.7918
831.75        66.49498
832.16        65.89914
832.57        65.23161
832.97        64.83415
833.38        64.80253
833.79        65.02212
834.20        65.38164
834.60        65.69985
835.01        65.91506
835.42        66.12163
835.82        66.31435
836.23        66.40344
836.64        66.41067
837.04         66.3084
837.45        66.24911
837.86        66.55584
838.26        67.29227
838.67        68.32421
839.08         69.3053
839.48        69.57452
839.89        68.97547
840.29        67.75543
840.70        66.46993
841.11        65.74382
841.51        65.74131
841.92        66.26323
842.33        67.07966
842.73        67.77278
843.14         68.0773
843.54        68.16151
843.95         68.1309
844.35        68.21026
844.76        68.43563
845.17        68.70613
845.57        68.91739
845.98        68.89378
846.38        68.62112
846.79        68.16779
847.19        67.66148
847.60        67.27217
848.00        67.06607
848.41        66.97816
848.81         66.9744
849.22        66.91036
849.62        66.79375
850.03        66.67309
850.43         66.5935
850.84        66.55537
851.24        66.61015
851.65        66.67133
852.05        66.86881
852.46         67.3175
852.86        67.98594
853.27        68.78993
853.67        69.42863
854.07        69.61169
854.48        69.27963
854.88        68.55033
855.29        67.60788
855.69        66.93348
856.10         66.6291
856.50        66.65676
856.90        66.83929
857.31        66.87777
857.71        66.73112
858.12        66.44244
858.52        66.14124
858.92        65.92284
859.33        65.81072
859.73        65.79525
860.13        65.80515
860.54        65.75867
860.94         65.6769
861.34        65.58381
861.75        65.51933
862.15        65.58592
862.55        65.77604
862.96        65.99815
863.36        66.25484
863.76         66.4772
864.17        66.60985
864.57        66.69889
864.97        66.62003
865.38        66.18695
865.78        65.43083
866.18        64.42705
866.58        63.44965
866.99        62.98263
867.39        63.17944
867.79        63.88351
868.19        64.83295
868.60        65.60267
869.00        66.08176
869.40        66.33968
869.80        66.42094
870.21        66.41924
870.61         66.4389
871.01        66.39974
871.41        66.24926
871.81        65.92893
872.22        65.43719
872.62        64.79978
873.02         64.2142
873.42        63.99081
873.82        64.19334
874.22        64.74021
874.63        65.30132
875.03        65.36691
875.43         64.8253
875.83        63.83892
876.23        62.79797
876.63        62.30794
877.03        62.51089
877.44        63.20479
877.84        64.06328
878.24         64.5425
878.64        64.43852
879.04        63.79135
879.44         62.9913
879.84        62.73767
880.24         63.1342
880.64        63.90706
881.04        64.66034
881.44         64.7875
881.84        64.14801
882.24        62.97391
882.65        61.69056
883.05        60.93526
883.45        60.89031
883.85        61.38784
884.25        62.14054
884.65        62.65655
885.05         62.7779
885.45         62.6448
885.85        62.48018
886.25        62.61984
886.65        63.13173
887.05        63.88268
887.45        64.62611
887.85        64.97719
888.25        64.83451
888.65        64.31823
889.04        63.68796
889.44        63.37189
889.84        63.45324
890.24        63.80319
890.64        64.17861
891.04        64.18381
891.44        63.73846
891.84        63.01459
892.24        62.24282
892.64        61.74315
893.04        61.61298
893.44        61.77142
893.83        62.12868
894.23        62.48573
894.63        62.78802
895.03        63.05898
895.43        63.36277
895.83         63.8103
896.23        64.37935
896.63        64.96529
897.02        65.38087
897.42        65.37761
897.82        64.92734
898.22        64.18795
898.62        63.32235
899.01        62.55563
899.41        61.99863
899.81        61.58118
900.21        61.40329
900.61        61.61166
901.00        62.18502
901.40        63.07164
901.80        63.96134
902.20        64.34686
902.59        64.13123
902.99        63.43449
903.39        62.59505
903.79         62.1943
904.18        62.35999
904.58        62.89165
904.98        63.54398
905.38        63.94631
905.77        64.00198
906.17        63.88623
906.57        63.61492
906.96        63.20987
907.36        62.72387
907.76        62.14534
908.15        61.74551
908.55        61.94345
908.95        62.78902
909.34        64.15941
909.74        65.56172
910.14        66.24806
910.53        65.99704
910.93         65.0483
911.33        63.78086
911.72        62.79183
912.12        62.33113
912.52        62.23991
912.91         62.3644
913.31        62.47936
913.70        62.51997
914.10         62.5528
914.49        62.71911
914.89        63.15118
915.29        63.86664
915.68        64.76174
916.08        65.55667
916.47        65.88358
916.87        65.66775
917.26        65.01407
917.66        64.22906
918.05        63.63843
918.45        63.35043
918.84        63.33088
919.24           63.43
919.64        63.51245
920.03        63.54103
920.42        63.53007
920.82        63.60561
921.21        63.90291
921.61        64.41065
922.00        65.08703
922.40        65.69016
922.79           65.95
923.19        65.76984
923.58        65.28107
923.98        64.69518
924.37        64.26246
924.77        64.07758
925.16        64.03264
925.55        64.12027
925.95         64.3002
926.34        64.53839
926.74        64.82456
927.13        65.01591
927.52        64.81248
927.92         64.2389
928.31        63.40176
928.70        62.56529
929.10        62.11244
929.49        62.11905
929.89        62.40596
930.28        62.96439
930.67        63.65538
931.07        64.34476
931.46        65.13862
931.85        65.69282
932.24        65.50194
932.64        64.57212
933.03        63.04481
933.42        61.57206
933.82        61.11738
934.21        61.86131
934.60        63.56975
934.99        65.60063
935.39        66.76885
935.78        66.73991
936.17        65.75641
936.56        64.38113
936.96        63.51196
937.35        63.40194
937.74        63.78433
938.13         64.2458
938.53        64.16813
938.92         63.4325
939.31        62.32139
939.70         61.2343
940.09        60.70601
940.49        60.82054
940.88        61.40969
941.27        62.21709
941.66        62.77974
942.05        62.93802
942.44        62.86582
942.84        62.68211
943.23        62.55863
943.62        62.57784
944.01        62.63079
944.40        62.81413
944.79        63.31938
945.18        64.12162
945.57        65.14337
945.97        66.01475
946.36        66.19756
946.75        65.54524
947.14          64.308
947.53        62.87145
947.92        61.78108
948.31        61.20733
948.70        61.02285
949.09        61.18153
949.48        61.58638
949.87        62.15504
950.26        62.90117
950.65        63.70356
951.04        64.34976
951.43        64.75359
951.82        64.90913
952.21        64.84581
952.60        64.65745
952.99        64.41872
953.38        64.16051
953.77        63.93161
954.16        63.80696
954.55        63.79054
954.94        63.81643
955.33         63.9495
955.72        64.27593
956.11        64.76911
956.50        65.43341
956.89        65.86864
957.28        65.42389
957.66        64.03568
958.05        61.98853
958.44        60.02716
958.83         59.2168
959.22        59.73242
959.61        61.27684
960.00          63.154
960.39        64.04927
960.78        63.55808
961.16        62.09918
961.55        60.37191
961.94        59.30389
962.33        59.14666
962.72        59.64983
963.11        60.49998
963.49        61.13689
963.88        61.26672
964.27        61.07375
964.66        60.88683
965.04        61.20979
965.43        62.08529
965.82        63.37701
966.21        64.57478
966.60         64.7397
966.98         63.6418
967.37        61.73738
967.76          59.785
968.15        58.71346
968.53         58.7069
968.92        59.52623
969.31        60.76126
969.69        61.57935
970.08        61.59003
970.47        61.04882
970.86        60.41342
971.24        60.34045
971.63        60.96647
972.02        62.08349
972.40         63.2552
972.79        63.43422
973.17        62.43913
973.56        60.69904
973.95        58.91306
974.33        57.94363
974.72        57.96423
975.11        58.69706
975.49        59.83152
975.88        60.69067
976.26        61.04114
976.65        61.04008
977.04         60.8174
977.42        60.54837
977.81        60.28779
978.19        59.93146
978.58         59.6778
978.96        59.84173
979.35        60.42527
979.74        61.35828
980.12        62.37299
980.51        62.72896
980.89         62.3896
981.28        61.61716
981.66        60.73481
982.05        60.17008
982.43        60.06751
982.82        60.22609
983.20        60.89064
983.59        62.38811
983.97        64.73139
984.35        67.78208
984.74        70.54878
985.12        71.61387
985.51        70.59962
985.89        67.93912
986.28         64.8665
986.66        63.19789
987.04        63.43386
987.43         65.0872
987.81        67.32099
988.20        68.35648
988.58        67.64121
988.96        65.72948
989.35        63.44826
989.73        61.92591
990.12        61.44018
990.50        61.66378
990.88        62.15617
991.27        62.20637
991.65        61.63349
992.03        60.74628
992.42        60.02724
992.80        60.08617
993.18        61.05742
993.56        62.71742
993.95        64.54913
994.33        65.76791
994.71        65.94102
995.10        65.38349
995.48        64.47897
995.86        63.89424
996.24        63.81444
996.63        63.90501
997.01        64.19891
997.39        64.44814
997.77        64.50401
998.15        64.53504
998.54        64.36177
998.92        63.54997
999.30        62.18995
999.68        60.47482
1000.06        58.96275
1000.45        58.40057
1000.83        59.01842
1001.21        60.65597
1001.59        62.92437
1001.97        64.74471
1002.35        65.62074
1002.73        65.84931
1003.12        65.81591
1003.50        65.94087
1003.88        66.45649
1004.26        66.99322
1004.64        67.68813
1005.02        68.80415
1005.40        70.21302
1005.78        71.94759
1006.16        72.95549
1006.54         71.5623
1006.92        67.80657
1007.30        62.50826
1007.69        57.50938
1008.07         55.2156
1008.45         56.3188
1008.83        60.26103
1009.21        65.97723
1009.59        70.57785
1009.97        72.36253
1010.35         71.9202
1010.73        69.82906
1011.11          67.097
1011.49        64.37492
1011.86        61.56784
1012.24        59.12534
1012.62        57.61253
1013.00        57.08043
1013.38        57.44699
1013.76        58.73706
1014.14        60.64644
1014.52        62.77811
1014.90        65.01411
1015.28        66.68147
1015.66        67.05288
1016.04        66.10448
1016.41        63.93141
1016.79        61.35361
1017.17        60.04978
1017.55        60.47758
1017.93        62.17279
1018.31        64.15624
1018.69        64.96831
1019.06        64.28602
1019.44         62.4716
1019.82        60.13568
1020.20        58.78616
1020.58        59.03336
1020.95        60.16763
1021.33        61.64584
1021.71        62.78436
1022.09        63.49032
1022.46        64.25333
1022.84        64.72609
1023.22        64.17657
1023.60         62.5648
1023.97        59.94556
1024.35         57.9705
1024.73         58.5194
