SpectraSmart Spectrum 2.9.0.0
--------- Device Information -----------
Spectrum Name :  反射率_0
Saving Time :  2024/04/26 23:21:40
Spectro-Module Model Name : SE2030-DUVN
Spectro-Module Serial Number : OS361AC55029948
Wavelength Start : 200
Wavelength End : 1025
Wavelength Unit : Wavelength(nm)
Spectrum Unit : Reflectance(%)
-----------Spectrum Setting ------------
Integration Time : 20ms
Average : 10
Boxcar : 0
Background removal :  enabled
linearity correction :  enabled
SC :  disabled
Intensity correction :  disabled
DWT denoise :  enabled
savitzky-golay :  disabled
FFT :  disabled
Running average :  disabled
Kalman :  disabled
High pass :  disabled
---------------BEGIN--------------------
Wavelength(nm)             Reflectance(%)
200.29               0
200.75        57.58752
201.21         50.4806
201.67        44.62069
202.13        41.73034
202.58        41.54869
203.04        43.88669
203.50        48.33362
203.96        52.54293
204.42        54.64847
204.88        54.86724
205.34        53.44998
205.80        51.69586
206.26        50.39438
206.72        49.08221
207.18        48.21741
207.64        48.32285
208.10        49.42257
208.55        52.08437
209.01        55.79966
209.47        57.87648
209.93        56.96003
210.39        55.00727
210.85        53.68603
211.31        54.12242
211.77        56.79379
212.23        63.09211
212.69        80.81229
213.14         120.859
213.60        135.6792
214.06        121.2335
214.52        105.3198
214.98        93.00936
215.44        81.46269
215.90        67.91148
216.36        55.13474
216.81         48.4028
217.27        49.70581
217.73        59.79595
218.19         76.1734
218.65        82.14723
219.11         71.7486
219.57        56.43539
220.02        46.29306
220.48        45.99205
220.94        54.60609
221.40        72.46991
221.86         98.8936
222.32        116.5803
222.77         110.175
223.23        91.26982
223.69        72.30493
224.15        60.14179
224.61        53.79708
225.06        50.13869
225.52        48.43931
225.98        47.92834
226.44        48.18166
226.90        49.38589
227.36        50.92743
227.81        51.60609
228.27        51.26598
228.73        50.05751
229.19        48.81276
229.65        48.56882
230.10        49.35746
230.56        50.91209
231.02        52.30547
231.48        52.12029
231.93        50.23785
232.39         47.5677
232.85         45.2544
233.31        44.80155
233.77        46.29968
234.22        49.21869
234.68        52.54975
235.14        54.81031
235.60        55.55161
236.05        55.18243
236.51         54.2484
236.97        53.96002
237.43        54.83665
237.88        56.60018
238.34        58.77478
238.80        60.90229
239.26        62.97308
239.71        65.70049
240.17        69.25854
240.63        74.21561
241.08        80.74586
241.54        87.78933
242.00        95.67547
242.46        106.1523
242.91        121.6916
243.37        144.2813
243.83        173.9247
244.28        196.4463
244.74        191.6402
245.20        160.8585
245.66        125.8921
246.11        104.6017
246.57        96.96593
247.03        97.70294
247.48        101.2344
247.94        98.74932
248.40        90.90831
248.85        82.74515
249.31        76.89935
249.77        73.94604
250.22        73.18954
250.68        73.41219
251.14        75.01414
251.59        78.69244
252.05        83.70188
252.51        89.44684
252.96        92.42462
253.42        90.32266
253.88        84.38776
254.33        76.27377
254.79        70.47932
255.25         70.4976
255.70        75.69396
256.16        84.36569
256.62         92.3343
257.07        93.31544
257.53        88.72831
257.99        82.32256
258.44        76.91303
258.90        75.15609
259.35        75.80013
259.81        77.80537
260.27        79.67398
260.72        79.69749
261.18        78.14275
261.63        75.56815
262.09        73.11197
262.55        71.28817
263.00        70.00407
263.46        69.14851
263.91        68.22088
264.37        67.03717
264.83        65.53172
265.28        63.82221
265.74        62.30835
266.19        61.08212
266.65        60.22978
267.11        59.56538
267.56        58.93843
268.02        58.14592
268.47        57.14413
268.93        56.05479
269.38         54.9253
269.84        53.89469
270.30        52.97287
270.75        52.08289
271.21        51.28056
271.66        50.57917
272.12        49.96492
272.57        49.40314
273.03        48.74862
273.48        47.75916
273.94        46.48388
274.39        44.98548
274.85         43.5716
275.31         42.4994
275.76        41.78037
276.22         41.3672
276.67        41.03579
277.13        40.57526
277.58        39.88123
278.04        39.06506
278.49        38.20193
278.95        37.53848
279.40        37.05141
279.86        36.72447
280.31        36.37028
280.77        35.85631
281.22        35.12255
281.68        34.31374
282.13         33.5248
282.59        32.97832
283.04         32.6686
283.50        32.55376
283.95        32.52013
284.41         32.4099
284.86        32.18417
285.32        31.92928
285.77        31.70977
286.22        31.68599
286.68        31.87146
287.13        32.14965
287.59        32.45259
288.04        32.62915
288.50        32.66307
288.95        32.57618
289.41        32.40493
289.86        32.12291
290.32        31.80372
290.77        31.45889
291.22        31.20578
291.68        31.19755
292.13        31.45858
292.59        31.98022
293.04        32.69424
293.50        33.50107
293.95        34.35421
294.40        35.28173
294.86        36.30518
295.31        37.45088
295.77        38.72634
296.22        40.08509
296.68        41.51646
297.13        42.99205
297.58        44.51681
298.04        46.11463
298.49        47.76429
298.95         49.4534
299.40        51.16088
299.85        52.87326
300.31          54.644
300.76        56.53414
301.21        58.54494
301.67        60.66479
302.12        62.73254
302.58        64.59851
303.03        66.20103
303.48        67.64127
303.94        69.10012
304.39        70.77367
304.84        72.73282
305.30        74.90947
305.75        77.14063
306.20        79.27291
306.66        81.26141
307.11        83.10696
307.57        84.85091
308.02        86.43974
308.47        87.91051
308.93        89.27657
309.38        90.57159
309.83        91.97867
310.29        93.53416
310.74        95.18867
311.19        96.81627
311.65          98.171
312.10        99.17068
312.55         99.8801
313.00        100.4664
313.46        101.2019
313.91        102.1267
314.36        103.1876
314.82        104.2354
315.27        105.0482
315.72        105.5474
316.18        105.8369
316.63        106.0148
317.08        106.2831
317.53        106.7051
317.99        107.2151
318.44        107.7598
318.89        108.2215
319.35        108.5586
319.80        108.8106
320.25        109.0305
320.70        109.3007
321.16        109.6415
321.61        110.0735
322.06        110.5108
322.51        110.8283
322.97        110.9855
323.42        111.0141
323.87        111.0864
324.32        111.5068
324.78        112.2869
325.23        113.4211
325.68        114.5166
326.13        114.9276
326.59        114.5134
327.04           113.5
327.49        112.3979
327.94        112.0461
328.39        112.6465
328.85         113.931
329.30        115.5464
329.75        116.5715
330.20        116.7095
330.66        116.1951
331.11        115.4902
331.56        115.2577
332.01        115.7016
332.46        116.5884
332.92        117.5822
333.37        118.2973
333.82        118.5259
334.27        118.4659
334.72        118.2939
335.17        118.2674
335.63        118.4843
336.08        118.9174
336.53        119.5505
336.98        120.4201
337.43         121.486
337.88        122.6961
338.34        123.9162
338.79        125.0431
339.24        125.9414
339.69        126.6294
340.14        127.0082
340.59        126.9576
341.05        126.5528
341.50        125.8715
341.95        125.2429
342.40        125.1569
342.85        125.7216
343.30        126.8034
343.75        128.1309
344.20        129.2274
344.66        129.9317
345.11        130.3563
345.56        130.5947
346.01         130.819
346.46        131.1002
346.91        131.3717
347.36        131.6317
347.81         131.907
348.26         132.184
348.72        132.4518
349.17        132.6948
349.62        132.9149
350.07        133.0968
350.52        133.2606
350.97        133.2703
351.42        132.9181
351.87        132.2082
352.32        131.2276
352.77        130.2954
353.22        129.8658
353.67        130.0159
354.13        130.6206
354.58        131.3366
355.03        131.5413
355.48        131.0745
355.93        130.0971
356.38         129.025
356.83        128.4945
357.28        128.6077
357.73        129.1313
358.18        129.6057
358.63        129.3001
359.08        128.0653
359.53        126.1904
359.98        124.1245
360.43        122.5107
360.88        121.5096
361.33        120.9238
361.78        120.5113
362.23        119.8917
362.68        118.9645
363.13        117.8836
363.58        116.7754
364.03        115.8104
364.48         115.025
364.93        114.3165
365.38        113.6407
365.83         112.958
366.28        112.2456
366.73        111.5375
367.18        110.7826
367.63        109.8852
368.08        108.8482
368.53        107.7111
368.98         106.599
369.43         105.712
369.88        105.0905
370.33        104.6696
370.78        104.3338
371.23        103.8914
371.68        103.2769
372.13        102.5365
372.58        101.7241
373.03        100.9279
373.48        100.1742
373.93        99.42823
374.38        98.66721
374.83        97.86891
375.28        97.03511
375.72        96.17106
376.17        95.36222
376.62        94.60759
377.07        93.92752
377.52        93.34712
377.97        92.83965
378.42        92.37795
378.87        91.95057
379.32        91.51262
379.77        91.16782
380.22        91.07224
380.67        91.20693
381.11        91.54907
381.56        91.71909
382.01        91.19308
382.46         89.9325
382.91        88.19534
383.36        86.49893
383.81        85.54597
384.26        85.44357
384.71        85.95354
385.15         86.7238
385.60        87.13615
386.05        86.99082
386.50        86.46343
386.95         85.7075
387.40        84.96899
387.85        84.35323
388.29        83.73878
388.74        83.22266
389.19        82.73492
389.64        82.26084
390.09        81.81814
390.54        81.44215
390.98        81.15813
391.43        81.00587
391.88        80.94537
392.33        80.88747
392.78        80.70928
393.23        80.39325
393.67        79.94274
394.12        79.51922
394.57        79.20399
395.02        79.01681
395.47         78.9043
395.91        78.81718
396.36        78.64587
396.81        78.39427
397.26        78.10579
397.71        77.80641
398.15        77.53215
398.60        77.38368
399.05        77.16261
399.50        76.90186
399.95        76.94969
400.39        77.19221
400.84        76.86284
401.29        76.06097
401.74        75.70907
402.18        75.79687
402.63        75.48481
403.08        74.87638
403.53        74.64866
403.97        74.81427
404.42        75.05833
404.87        75.22009
405.32        75.13029
405.76        74.74167
406.21        74.21693
406.66        73.68188
407.11        73.26231
407.55        73.11401
408.00        73.26547
408.45        73.63879
408.90        74.18945
409.34        74.60172
409.79        74.15382
410.24        73.10412
410.68        72.53586
411.13        72.55173
411.58        72.56292
412.03        72.46066
412.47        72.34884
412.92        72.18113
413.37        71.97067
413.81        71.79414
414.26        71.82817
414.71        72.06403
415.15         72.4738
415.60        72.90597
416.05        73.17566
416.49        73.22581
416.94        73.10334
417.39        72.90781
417.83        72.78032
418.28        72.77407
418.73        72.84901
419.17        72.97791
419.62        73.11889
420.07        73.23432
420.51        73.30811
420.96        73.36914
421.41         73.3587
421.85        73.24576
422.30        73.23531
422.74        73.20998
423.19        72.85244
423.64        72.26009
424.08        72.06469
424.53        72.29378
424.98        72.47493
425.42        72.59018
425.87        73.01694
426.31        73.59393
426.76        73.62014
427.21        73.17125
427.65        72.94204
428.10         72.9922
428.54         73.0227
428.99        73.09128
429.44        73.12691
429.88        73.23304
430.33        73.89864
430.77        74.78461
431.22        75.24119
431.66        75.13772
432.11        74.46236
432.56        73.56709
433.00        73.41384
433.45        74.17779
433.89        74.98277
434.34        75.19613
434.78         76.0291
435.23        76.09565
435.67        73.63216
436.12        73.76968
436.57         73.8034
437.01        74.92415
437.46         75.3747
437.90        75.16685
438.35        74.03111
438.79        74.52768
439.24        74.45844
439.68        74.53699
440.13        74.79626
440.57        75.22902
441.02        75.51498
441.46        75.57972
441.91        76.08554
442.35         76.7178
442.80        76.37907
443.24        75.36605
443.69        75.52377
444.13        76.69426
444.58        77.20037
445.02        76.97027
445.47        76.94006
445.91        77.21163
446.36        77.43008
446.80        77.59577
447.24        77.77824
447.69        77.95864
448.13        78.08424
448.58        78.16171
449.02        78.18446
449.47        78.15353
449.91        78.03658
450.36        77.87185
450.80        77.65228
451.25        77.48299
451.69        77.46323
452.13        77.62125
452.58        77.90488
453.02        78.21449
453.47         78.3982
453.91          78.403
454.36        78.28289
454.80        78.06203
455.24        77.75194
455.69        77.39855
456.13        77.06339
456.58        76.84466
457.02        76.51311
457.46        76.23586
457.91        76.58227
458.35        77.23697
458.79        77.28646
459.24        76.74768
459.68        75.89327
460.13        74.99252
460.57        74.91248
461.01        75.27893
461.46        75.21354
461.90         75.4497
462.34        77.12053
462.79        76.26038
463.23        76.53556
463.68        76.75205
464.12        76.50302
464.56        75.82697
465.01        74.86389
465.45        73.95035
465.89        73.85203
466.34        74.35648
466.78        74.75593
467.22        74.94599
467.67        74.00891
468.11        74.13579
468.55        74.18545
468.99        74.64767
469.44        74.67924
469.88        74.26962
470.32        73.92168
470.77         73.7231
471.21        73.60739
471.65        73.58685
472.10        73.68896
472.54        73.84408
472.98        73.91325
473.42        73.85104
473.87        73.81425
474.31        73.73891
474.75        73.35178
475.20         72.8131
475.64        72.67446
476.08        72.92045
476.52        72.91469
476.97        72.60529
477.41        72.53344
477.85        72.84166
478.29        72.30817
478.74        72.97888
479.18        73.16319
479.62         72.8359
480.06        72.77959
480.50        72.78707
480.95        72.87313
481.39        73.00179
481.83        72.56049
482.27        72.51686
482.72        72.74525
483.16        72.35476
483.60        72.38323
484.04        72.48269
484.48        72.76958
484.93        72.98934
485.37        72.95007
485.81        72.33166
486.25         72.0606
486.69        73.30119
487.14        74.31517
487.58        72.50085
488.02        73.24245
488.46        72.04549
488.90        71.72099
489.34        72.80472
489.79        74.06487
490.23        73.17583
490.67        72.64855
491.11        72.00689
491.55        71.79635
491.99        71.97436
492.43         71.8889
492.88        71.57076
493.32        71.56458
493.76        71.85038
494.20        72.05376
494.64        72.12201
495.08        72.16833
495.52        72.19298
495.96        72.14342
496.41         72.0473
496.85        72.05856
497.29        72.02004
497.73        71.99273
498.17        71.14826
498.61        70.91983
499.05         71.0772
499.49        71.42069
499.93        71.58019
500.37        71.72289
500.82        71.76192
501.26        71.79842
501.70        71.89314
502.14        71.93066
502.58        71.94831
503.02        71.98401
503.46        72.04605
503.90        72.15666
504.34         72.2529
504.78         72.2053
505.22        71.99962
505.66        71.68778
506.10        71.37534
506.54        71.22007
506.98        71.25613
507.42        71.43552
507.86        71.65797
508.30        71.75777
508.74        71.69062
509.18        71.50809
509.62        71.28653
510.06        71.14932
510.50        71.13251
510.94         71.1945
511.38        71.29138
511.82        71.35815
512.26        71.38102
512.70        71.36893
513.14        71.33535
513.58        71.36356
514.02        71.47534
514.46        71.38448
514.90        71.54781
515.34        71.59873
515.78        71.66544
516.22        71.73295
516.66        71.77934
517.10        71.75942
517.54        71.66637
517.98        71.52608
518.42        71.37146
518.86        71.25548
519.30        71.19744
519.74        71.18443
520.18        71.21265
520.62        71.27242
521.06        71.35455
521.50        71.46097
521.93        71.57178
522.37        71.63192
522.81        71.63808
523.25        71.59542
523.69        71.53304
524.13        71.50198
524.57        71.51077
525.01        71.54001
525.45        71.56274
525.89        71.53378
526.32        71.43807
526.76        71.31858
527.20        71.18667
527.64        71.06493
528.08        70.96699
528.52        70.88399
528.96        70.84267
529.40        70.88516
529.83        71.00519
530.27        71.19093
530.71        71.37122
531.15        71.44077
531.59        71.37743
532.03        71.21009
532.46        70.99108
532.90        70.85496
533.34        70.82226
533.78        70.81889
534.22        70.81005
534.66        70.82912
535.09        70.80939
535.53        70.60613
535.97        70.27618
536.41        70.08917
536.85        70.07552
537.28        70.09985
537.72        70.14515
538.16        70.23968
538.60        70.36579
539.04        70.50645
539.47        70.62151
539.91        70.72137
540.35        70.78944
540.79        70.78272
541.22        70.68855
541.66         70.7664
542.10        70.61738
542.54         70.5575
542.97        70.47978
543.41        70.44611
543.85        70.44982
544.29        70.49306
544.72        70.52916
545.16         70.5163
545.60        70.44053
546.04        70.32885
546.47        70.23753
546.91        70.28014
547.35        70.47147
547.79        70.68489
548.22        70.86626
548.66        71.11648
549.10        71.39011
549.53        71.23607
549.97        70.76876
550.41        70.41688
550.84        70.31453
551.28        70.37336
551.72        70.49523
552.15        70.64294
552.59        70.85442
553.03        70.33653
553.46        70.85416
553.90        70.78503
554.34        70.62399
554.77        70.70139
555.21         70.5292
555.65        70.55696
556.08        70.64875
556.52        70.76131
556.96        70.83999
557.39        70.89204
557.83        70.89658
558.27         70.6612
558.70        70.26643
559.14        70.12003
559.57        70.21178
560.01         70.2206
560.45        70.15858
560.88        70.35095
561.32        70.75174
561.75        70.91789
562.19        70.87347
562.63        70.90719
563.06        71.00848
563.50        71.01451
563.93        70.87531
564.37        70.77772
564.80        70.76861
565.24        70.65092
565.68        70.28411
566.11        70.99842
566.55           70.25
566.98        70.07385
567.42        69.89241
567.85        70.10979
568.29        70.65813
568.72         71.0713
569.16        71.37005
569.60        71.53481
570.03        71.49079
570.47          71.616
570.90        71.94839
571.34        70.80882
571.77        71.37028
572.21        71.99403
572.64        71.70725
573.08        71.97345
573.51        71.06125
573.95        71.05428
574.38        71.69222
574.82        71.75364
575.25        71.47498
575.69        71.41364
576.12        71.69534
576.56        70.97176
576.99        70.93562
577.42        71.31946
577.86        71.30869
578.29        72.04118
578.73         72.2646
579.16        72.09063
579.60         71.2947
580.03        71.28779
580.47          71.162
580.90        72.00597
581.33         71.7513
581.77        72.22422
582.20        72.07682
582.64        72.49786
583.07        72.14138
583.51        71.77213
583.94        71.32029
584.37        71.56798
584.81        71.89353
585.24        71.98196
585.68         71.6079
586.11        71.70238
586.54        72.32877
586.98        71.03884
587.41        70.36746
587.85        71.01656
588.28        71.60631
588.71         71.2656
589.15         70.8146
589.58        71.31171
590.01        70.67175
590.45        70.42993
590.88        71.66451
591.31        71.64965
591.75        71.03387
592.18        70.61193
592.61        70.59264
593.05        71.23241
593.48        71.84894
593.91        71.65968
594.35        71.51323
594.78        70.88396
595.21         70.2631
595.65        70.71381
596.08         72.2334
596.51        71.77024
596.94        71.26896
597.38        70.81287
597.81        70.97977
598.24        71.72337
598.68        71.42014
599.11        71.03672
599.54        71.89188
599.97        71.68987
600.41        71.41355
600.84        70.85715
601.27        71.18317
601.70        71.28462
602.14        71.30603
602.57        71.13939
603.00        70.95275
603.43         70.6696
603.87        71.27233
604.30        71.64739
604.73        71.49911
605.16        70.62766
605.60        70.85574
606.03        70.54689
606.46        70.28574
606.89        70.56186
607.32        71.02786
607.76        70.84355
608.19        71.15138
608.62        71.02702
609.05        70.95953
609.48        70.86016
609.92        71.68434
610.35        71.18507
610.78        70.72739
611.21        70.57377
611.64        70.62367
612.07         71.0481
612.50        71.24152
612.94        71.33926
613.37         71.1214
613.80        71.08632
614.23        70.21924
614.66        70.07239
615.09        70.33501
615.52        70.56238
615.96        70.60613
616.39        70.80984
616.82        70.98332
617.25        70.51841
617.68        70.41593
618.11        70.57735
618.54        71.15893
618.97        71.15079
619.40        70.59607
619.84        70.61884
620.27        70.58377
620.70        70.79679
621.13         70.9582
621.56        70.33356
621.99        69.45132
622.42        69.25702
622.85        69.98145
623.28        69.35114
623.71        69.54979
624.14        69.86389
624.57        70.14736
625.00        70.00144
625.43        70.23856
625.86        70.21574
626.29        70.32348
626.72        69.78046
627.15        70.15195
627.58        70.18365
628.01        70.23897
628.44        70.17488
628.87        69.88866
629.30        69.76405
629.73        69.75031
630.16        70.00525
630.59        69.90451
631.02        70.08733
631.45        70.32077
631.88        70.45272
632.31        70.44754
632.74        70.35326
633.17        70.20976
633.60         70.0688
634.03        69.95886
634.46        69.86409
634.89        69.77689
635.32         69.7016
635.75        69.64211
636.18        69.53568
636.61        69.41864
637.04        69.43277
637.47        69.57991
637.89        69.80957
638.32        70.00967
638.75        70.06751
639.18        69.95236
639.61        69.70203
640.04        69.41328
640.47        69.23988
640.90         69.2235
641.33          69.327
641.76        69.47915
642.18        69.56671
642.61        69.53538
643.04         69.4317
643.47        69.32011
643.90        69.30143
644.33         69.3951
644.76        69.56088
645.18        69.73135
645.61        69.78258
646.04        69.69669
646.47        69.52152
646.90        69.32439
647.33        69.19966
647.75        69.14588
648.18        69.19881
648.61        69.36676
649.04        69.37796
649.47        69.16577
649.89        69.89735
650.32        69.65387
650.75        69.66985
651.18        69.47138
651.61        69.36143
652.03         69.4543
652.46        69.77917
652.89        70.15529
653.32        70.27837
653.74         70.3263
654.17        69.28394
654.60        69.71173
655.03         69.8196
655.46        69.59094
655.88        69.16961
656.31        71.56548
656.74        73.38207
657.16        73.94794
657.59         74.6275
658.02        70.97137
658.45        71.11628
658.87        70.20433
659.30        69.70875
659.73        69.77782
660.15        70.60592
660.58        69.83225
661.01        69.67126
661.44        69.46605
661.86        69.22076
662.29        68.91461
662.72          69.469
663.14        69.46946
663.57        69.44107
664.00        69.11142
664.42        69.13257
664.85        69.52216
665.27        69.93055
665.70          70.208
666.13        70.20558
666.55        70.15156
666.98        69.77044
667.41         69.2456
667.83        69.20605
668.26        68.98499
668.69        69.11205
669.11        69.32514
669.54        69.52702
669.96        69.67747
670.39        69.88747
670.82        69.98897
671.24        70.06348
671.67        70.05908
672.09        69.94176
672.52        69.77878
672.94        69.70782
673.37        69.72289
673.80        69.64452
674.22         69.4926
674.65        69.39851
675.07        69.38657
675.50        69.36504
675.92        69.32562
676.35        69.27974
676.77        69.22399
677.20        69.15728
677.62        69.11505
678.05        69.12156
678.47        69.16669
678.90        69.37859
679.32        69.50703
679.75        69.56022
680.17        69.43935
680.60         69.4929
681.02         69.2401
681.45        69.21101
681.87        69.27994
682.30        69.45276
682.72        69.67007
683.15        69.72273
683.57        69.63868
684.00         69.6107
684.42        69.68227
684.85        69.77522
685.27        69.88647
685.70        70.08583
686.12         70.3018
686.54         70.4015
686.97        70.35767
687.39        70.21809
687.82        70.03002
688.24        69.89102
688.66        69.82875
689.09        69.81818
689.51        69.84507
689.94        69.85258
690.36        69.83549
690.78        69.79851
691.21        69.77854
691.63         69.8227
692.06        69.93749
692.48         70.1106
692.90        70.27065
693.33        70.30096
693.75        70.17935
694.17        69.94572
694.60         69.7141
695.02         69.6083
695.44        69.67505
695.87         70.0185
696.29        70.48748
696.71        70.50119
697.14        70.10657
697.56        69.90707
697.98        69.97293
698.41        69.97404
698.83        69.91319
699.25        70.04379
699.68        70.26531
700.10        70.35191
700.52         70.2466
700.94        70.03793
701.37        69.81645
701.79        69.77237
702.21        69.92913
702.64        70.20771
703.06        70.50737
703.48        70.64802
703.90        70.58272
704.33        70.37685
704.75        70.10206
705.17        69.86276
705.59         69.7096
706.01        69.61311
706.44        69.59089
706.86        69.69969
707.28        69.92017
707.70         70.2047
708.12        70.49429
708.55        70.74724
708.97        70.90489
709.39        70.82599
709.81        70.57491
710.23        70.43694
710.66        70.45638
711.08        70.51481
711.50         70.5541
711.92         70.5499
712.34        70.49117
712.76         70.4071
713.19         70.3121
713.61        70.26519
714.03        70.26953
714.45        70.31219
714.87        70.41025
715.29        70.59516
715.71        70.85314
716.13        71.15154
716.56        71.40991
716.98        71.58906
717.40         71.6254
717.82         71.5461
718.24        71.35529
718.66          71.063
719.08        70.71349
719.50        70.34202
719.92        70.04224
720.34        69.94892
720.76        70.08325
721.19        70.37782
721.61        70.79329
722.03        71.20274
722.45        71.53706
722.87        71.80432
723.29        71.94423
723.71        71.87245
724.13        71.59824
724.55        71.16376
724.97        70.69059
725.39        70.38876
725.81         70.3203
726.23        70.41017
726.65        70.60058
727.07        70.94449
727.49        71.13933
727.91        71.40831
728.33        71.64022
728.75        71.78424
729.17        71.82362
729.59        71.75796
730.01         71.6295
730.43        71.51723
730.85        71.44544
731.27        71.39655
731.69        71.35605
732.10        71.29274
732.52        71.20081
732.94        71.11887
733.36        71.07294
733.78        70.96007
734.20        70.77406
734.62        70.79433
735.04        71.12837
735.46        70.62254
735.88        71.36845
736.30        71.63776
736.72        72.00089
737.13        72.27493
737.55        72.36308
737.97        72.52532
738.39        72.66216
738.81        72.15251
739.23        71.24993
739.65        71.23802
740.06        71.98072
740.48        72.27058
740.90        72.02884
741.32        71.95869
741.74        72.11842
742.16         72.2418
742.57        72.32819
742.99        72.42575
743.41        72.49102
743.83        72.44243
744.25        72.27386
744.67        71.99522
745.08        71.71859
745.50        71.60429
745.92        71.69795
746.34        71.95033
746.75        72.23483
747.17        72.33131
747.59        72.19748
748.01        71.90022
748.42        71.57134
748.84        71.42863
749.26        71.52119
749.68        71.75104
750.09        72.00829
750.51        72.16588
750.93        72.15584
751.35        71.96079
751.76        71.64485
752.18         71.3947
752.60        71.24702
753.01        71.13827
753.43        71.06302
753.85        71.07111
754.27         71.1663
754.68        71.34902
755.10        71.57438
755.52        71.76408
755.93        71.87807
756.35        71.90416
756.77         71.9164
757.18         71.9425
757.60        72.02397
758.02        72.31235
758.43         72.6184
758.85        72.11855
759.26        72.25683
759.68        71.02569
760.10        71.16882
760.51        71.86413
760.93         72.4071
761.34        71.97046
761.76         72.3858
762.18        72.32742
762.59        72.48023
763.01        72.53642
763.42        72.58429
763.84        72.56814
764.26        72.48409
764.67          72.529
765.09        72.65308
765.50        72.26641
765.92        71.60445
766.33        71.56005
766.75        72.00636
767.16        72.16521
767.58        71.92123
768.00        71.60275
768.41         71.4249
768.83        71.80244
769.24        72.53342
769.66        72.87475
770.07         72.7278
770.49        72.19692
770.90        71.59147
771.32         71.9098
771.73        72.96477
772.15        73.29226
772.56        72.81415
772.97        72.38329
773.39        72.17904
773.80        72.09127
774.22        72.14588
774.63        72.42606
775.05        72.76301
775.46        72.95365
775.88        72.90895
776.29        72.70933
776.70        72.46614
777.12        72.39017
777.53        72.54134
777.95        72.80535
778.36        73.09741
778.77        73.23691
779.19        73.19426
779.60         73.0553
780.02        72.85378
780.43        72.70421
780.84        72.66569
781.26        72.45628
781.67        72.21787
782.09        72.70634
782.50        73.67027
782.91        73.80108
783.33        73.14944
783.74        72.93238
784.15         73.1871
784.57        73.26356
784.98        73.17773
785.39        73.08842
785.81        73.09754
786.22        73.56847
786.63        74.31482
787.04        74.60254
787.46        74.39188
787.87        74.08177
788.28        73.82658
788.70        73.66264
789.11        73.62032
789.52        73.73133
789.93        73.91928
790.35        74.02882
790.76         74.0219
791.17        73.93095
791.58         73.8173
792.00        73.66897
792.41        73.50881
792.82        73.58973
793.23        73.81845
793.65        73.39888
794.06        72.63114
794.47         73.0075
794.88        74.25131
795.29        74.70158
795.71        74.22879
796.12        73.86813
796.53        73.75733
796.94         73.4419
797.35        73.11076
797.76        73.48579
798.18        74.36581
798.59        74.83407
799.00        74.75298
799.41        74.58866
799.82        74.45261
800.23        74.34313
800.64        74.30513
801.06        74.29041
801.47        74.30795
801.88        74.28423
802.29        74.20052
802.70        74.08691
803.11         73.9554
803.52        73.81882
803.93        73.70348
804.34        73.60963
804.75        73.56845
805.17        73.68149
805.58        73.99789
805.99         74.2625
806.40        74.44354
806.81        74.97121
807.22        75.58591
807.63        75.21041
808.04        74.07993
808.45        73.55107
808.86        73.76714
809.27        74.03825
809.68        74.22508
810.09        74.40201
810.50        74.50689
810.91        74.51078
811.32        74.51193
811.73        74.66787
812.14        74.99999
812.55        75.45501
812.96        75.85822
813.37        75.89657
813.78        75.50755
814.19         74.8301
814.60         74.0936
815.01        73.59649
815.42        73.40755
815.83        73.44984
816.24        73.64005
816.65        73.81018
817.05        73.89713
817.46        73.92345
817.87        73.93967
818.28        73.96935
818.69         74.0234
819.10        74.06367
819.51        74.11546
819.92         74.2405
820.33        74.43641
820.74        74.68149
821.14        74.89787
821.55        74.94894
821.96         74.8141
822.37        74.54201
822.78        74.22198
823.19        74.00588
823.60        73.94926
824.00        74.04274
824.41        74.19515
824.82        74.36364
825.23        74.50371
825.64        74.61735
826.04        74.71369
826.45        74.76228
826.86        74.77953
827.27        74.79185
827.68        74.75387
828.08        74.62614
828.49        74.36304
828.90         73.9873
829.31        73.69186
829.72        73.79247
830.12        74.35561
830.53        75.23006
830.94         76.0689
831.35        76.21886
831.75         75.5571
832.16         74.2905
832.57        72.88156
832.97        72.04429
833.38        71.97662
833.79        72.43314
834.20        73.20431
834.60        73.95227
835.01         74.5394
835.42        75.11798
835.82        75.59087
836.23        75.69436
836.64         75.4335
837.04        74.80621
837.45        74.17805
837.86        74.24035
838.26        75.14421
838.67        76.66782
839.08        78.23634
839.48        78.75269
839.89        77.94365
840.29        76.21802
840.70        74.36373
841.11        73.31001
841.51        73.29189
841.92        73.99506
842.33        75.10225
842.73        76.04635
843.14        76.47516
843.54        76.61236
843.95        76.55238
844.35        76.49936
844.76        76.50804
845.17        76.49499
845.57        76.42099
845.98        76.22379
846.38        75.92834
846.79        75.57124
847.19        75.27419
847.60        75.18506
848.00        75.33603
848.41        75.64658
848.81        75.99249
849.22        76.07556
849.62        75.87292
850.03        75.46487
850.43        75.00191
850.84        74.65733
851.24         74.5461
851.65        74.54037
852.05        74.73931
852.46        75.17598
852.86        75.79476
853.27        76.55128
853.67        77.14947
854.07        77.30962
854.48        76.97643
854.88        76.26933
855.29        75.36889
855.69        74.77264
856.10        74.57809
856.50        74.74461
856.90        75.10754
857.31        75.39695
857.71         75.5615
858.12        75.59793
858.52         75.5723
858.92        75.46758
859.33        75.27783
859.73        75.04673
860.13        74.72178
860.54        74.26347
860.94        73.73967
861.34        73.16744
861.75        72.70313
862.15        72.63114
862.55         72.9695
862.96        73.59386
863.36        74.30511
863.76        74.66399
864.17        74.53428
864.57        74.07333
864.97        73.40842
865.38        72.75983
865.78         72.2512
866.18        71.81882
866.58        71.53992
866.99        71.54604
867.39        71.86623
867.79        72.45494
868.19        73.13998
868.60        73.62048
869.00        73.84674
869.40        73.84504
869.80        73.70879
870.21        73.64262
870.61        73.77351
871.01        73.98201
871.41        74.13063
871.81        74.02541
872.22        73.63539
872.62         73.0386
873.02        72.42625
873.42        72.10661
873.82        72.16472
874.22        72.50436
874.63        72.92299
875.03        73.11752
875.43        72.98936
875.83         72.6302
876.23        72.19831
876.63        71.93556
877.03        71.91298
877.44        72.04246
877.84        72.22786
878.24        72.30956
878.64        72.20958
879.04        71.86943
879.44        71.50356
879.84        71.52315
880.24        71.95379
880.64        72.61907
881.04        73.20082
881.44        73.20159
881.84        72.52911
882.24        71.39058
882.65         70.1494
883.05        69.35775
883.45        69.18208
883.85        69.46856
884.25        70.05886
884.65        70.66662
885.05        71.15137
885.45        71.57449
885.85        71.90965
886.25         72.1204
886.65        72.21353
887.05        72.17391
887.45        72.03869
887.85         71.9025
888.25        71.80145
888.65        71.72574
889.04        71.68682
889.44        71.71996
889.84        71.80618
890.24        71.93921
890.64        72.06228
891.04        72.07742
891.44        71.97045
891.84        71.78538
892.24        71.57559
892.64        71.41911
893.04         71.3509
893.44        71.36045
893.83        71.48173
894.23        71.70891
894.63        72.04304
895.03        72.45173
895.43        72.87985
895.83        73.24429
896.23        73.49217
896.63        73.60793
897.02        73.55813
897.42        73.33084
897.82        72.94992
898.22        72.47736
898.62         71.9613
899.01        71.45333
899.41        71.01423
899.81        70.63144
900.21         70.4068
900.61        70.49401
901.00         70.8889
901.40        71.51504
901.80        72.15577
902.20        72.46091
902.59        72.35904
902.99        71.94598
903.39        71.39623
903.79        71.00619
904.18        70.86466
904.58        70.88525
904.98         71.0472
905.38        71.32555
905.77        71.68906
906.17        72.17903
906.57        72.63812
906.96        72.79704
907.36        72.59184
907.76         72.0941
908.15        71.60747
908.55        71.60296
908.95        72.18134
909.34         73.2122
909.74        74.28526
910.14        74.81427
910.53        74.61599
910.93        73.89114
911.33        72.94083
911.72        72.22005
912.12        71.92635
912.52        71.92329
912.91        72.04128
913.31        72.04618
913.70        71.88045
914.10        71.60854
914.49        71.43024
914.89        71.57396
915.29         72.1025
915.68        72.91472
916.08        73.69823
916.47        74.02225
916.87        73.79477
917.26        73.13423
917.66        72.38226
918.05        71.90516
918.45        71.81081
918.84        72.03541
919.24        72.36788
919.64         72.5821
920.03        72.61408
920.42        72.50662
920.82        72.43117
921.21        72.59179
921.61        73.00019
922.00         73.6034
922.40        74.16657
922.79        74.44683
923.19        74.34064
923.58        73.97163
923.98        73.50832
924.37         73.1236
924.77        72.90285
925.16        72.75648
925.55        72.71809
925.95        72.81871
926.34         73.0563
926.74        73.40341
927.13        73.68977
927.52        73.57149
927.92        73.05408
928.31        72.23714
928.70        71.41599
929.10        71.01573
929.49        71.11905
929.89        71.54311
930.28        72.19737
930.67        72.79472
931.07        73.17815
931.46        73.50166
931.85        73.60839
932.24        73.30056
932.64        72.64237
933.03        71.67598
933.42        70.81116
933.82        70.64052
934.21        71.26649
934.60        72.56196
934.99        74.09203
935.39         75.0489
935.78        75.21989
936.17        74.71384
936.56         73.9056
936.96        73.39698
937.35          73.354
937.74        73.60975
938.13        73.83752
938.53        73.56022
938.92        72.70866
939.31        71.51006
939.70        70.36606
940.09        69.81784
940.49        69.94462
940.88        70.61377
941.27        71.51427
941.66        72.07574
942.05        72.11602
942.44        71.81558
942.84        71.42961
943.23        71.35155
943.62        71.69369
944.01        72.28276
944.40        72.97965
944.79        73.59433
945.18        74.01189
945.57        74.25001
945.97        74.22847
946.36         73.9297
946.75        73.34403
947.14         72.5733
947.53        71.68819
947.92        70.76366
948.31        69.87615
948.70         69.0506
949.09        68.50906
949.48        68.60818
949.87        69.39729
950.26        70.74298
950.65         72.2759
951.04        73.37815
951.43        73.83525
951.82        73.75891
952.21        73.35526
952.60        73.00173
952.99        72.85345
953.38        72.84491
953.77        72.90024
954.16        72.90777
954.55        72.83085
954.94        72.68326
955.33        72.63348
955.72        72.93792
956.11        73.61327
956.50        74.57861
956.89        75.35899
957.28        75.18294
957.66        73.92516
958.05        71.91911
958.44        69.87292
958.83        68.78815
959.22        68.86181
959.61        69.82649
960.00        71.14292
960.39        71.80129
960.78        71.47299
961.16        70.45807
961.55        69.29225
961.94        68.65711
962.33        68.73569
962.72        69.35211
963.11        70.16385
963.49        70.58105
963.88        70.32545
964.27        69.58928
964.66        68.88988
965.04        69.00439
965.43        70.02482
965.82        71.79853
966.21        73.58344
966.60        73.95921
966.98         72.5629
967.37        70.00578
967.76        67.41016
968.15        66.18919
968.53         66.5993
968.92        68.26704
969.31         70.4498
969.69        71.65248
970.08        71.26524
970.47        69.78422
970.86        68.10196
971.24        67.46011
971.63        68.13468
972.02        69.77969
972.40        71.71355
972.79        72.34519
973.17        71.30602
973.56        69.20388
973.95        67.02756
974.33        66.03569
974.72        66.47017
975.11        67.90324
975.49        69.78758
975.88        70.97844
976.26        71.09594
976.65        70.46067
977.04        69.42958
977.42        68.51118
977.81        67.88195
978.19        67.36194
978.58        67.11293
978.96        67.38725
979.35         68.1505
979.74        69.37373
980.12          70.757
980.51        71.46568
980.89        71.40186
981.28        70.76788
981.66        69.91351
982.05        69.35031
982.43        69.22959
982.82        69.34491
983.20        69.81827
983.59        70.73483
983.97        72.11469
984.35        73.92538
984.74        75.52203
985.12        76.05555
985.51         75.2836
985.89        73.47368
986.28        71.50636
986.66        70.64874
987.04        71.26658
987.43        73.02702
987.81         75.2365
988.20        76.36944
988.58        75.96027
988.96        74.37296
989.35        72.46295
989.73        71.44511
990.12        71.56728
990.50        72.50449
990.88        73.50105
991.27        73.27089
991.65         71.5808
992.03        69.00417
992.42         66.5435
992.80        65.48357
993.18        66.10243
993.56        68.00497
993.95        70.43651
994.33        72.12972
994.71        72.43653
995.10        71.82389
995.48        70.78204
995.86        70.13955
996.24        70.14455
996.63        70.37822
997.01        70.88978
997.39        71.44353
997.77        71.87807
998.15        72.37697
998.54        72.71612
998.92        72.38821
999.30        71.44881
999.68        70.03245
1000.06        68.77448
1000.45        68.55595
1000.83        69.62896
1001.21        71.84766
1001.59        74.53329
1001.97        76.00902
1002.35        75.68378
1002.73        74.13914
1003.12        72.42666
1003.50        71.78476
1003.88        72.60831
1004.26        74.39462
1004.64        76.84879
1005.02        79.24225
1005.40        81.04118
1005.78        82.52048
1006.16        83.09031
1006.54         81.8575
1006.92        78.98293
1007.30        74.86645
1007.69        70.99904
1008.07        69.34803
1008.45        70.43917
1008.83        73.83939
1009.21        78.36898
1009.59         81.0182
1009.97        80.38143
1010.35        77.43158
1010.73        73.30368
1011.11          69.617
1011.49        67.04327
1011.86        65.17088
1012.24        64.23731
1012.62        64.59306
1013.00        66.19282
1013.38        69.05814
1013.76        72.72155
1014.14        75.63284
1014.52        76.86739
1014.90        76.60249
1015.28        75.21642
1015.66        73.46172
1016.04        71.65751
1016.41        69.60339
1016.79        67.70031
1017.17        66.81404
1017.55        67.11076
1017.93        68.38969
1018.31        69.93931
1018.69         70.6324
1019.06        70.25379
1019.44        69.07699
1019.82        67.39531
1020.20        66.11638
1020.58        65.63583
1020.95        65.37044
1021.33        65.55032
1021.71        66.36139
1022.09        67.81092
1022.46        70.40696
1022.84        72.80522
1023.22        71.94989
1023.60        67.22517
1023.97        59.69509
1024.35        53.29356
1024.73        52.59306
