SpectraSmart Spectrum 2.9.0.0
--------- Device Information -----------
Spectrum Name :  反射率_0
Saving Time :  2024/04/26 23:23:44
Spectro-Module Model Name : SE2030-DUVN
Spectro-Module Serial Number : OS361AC55029948
Wavelength Start : 200
Wavelength End : 1025
Wavelength Unit : Wavelength(nm)
Spectrum Unit : Reflectance(%)
-----------Spectrum Setting ------------
Integration Time : 20ms
Average : 10
Boxcar : 0
Background removal :  enabled
linearity correction :  enabled
SC :  disabled
Intensity correction :  disabled
DWT denoise :  enabled
savitzky-golay :  disabled
FFT :  disabled
Running average :  disabled
Kalman :  disabled
High pass :  disabled
---------------BEGIN--------------------
Wavelength(nm)             Reflectance(%)
200.29               0
200.75        34.16369
201.21        39.12465
201.67        43.33046
202.13        45.36196
202.58        45.20341
203.04        43.66138
203.50         40.9362
203.96        37.96317
204.42        35.78646
204.88        34.18837
205.34        33.91689
205.80        35.85937
206.26        39.33599
206.72        43.40997
207.18        46.48568
207.64        47.22949
208.10        45.71549
208.55        42.34844
209.01         36.5919
209.47         31.6945
209.93         30.9372
210.39        32.72794
210.85        35.63956
211.31        39.73819
211.77        46.52747
212.23        60.85209
212.69         95.4129
213.14         151.591
213.60        145.7395
214.06        103.2172
214.52        75.30653
214.98        63.16164
215.44        58.24445
215.90        55.52866
216.36        54.40947
216.81        54.60941
217.27        56.28394
217.73        61.26808
218.19        67.54334
218.65        65.87981
219.11        55.82358
219.57        44.29004
220.02        37.79869
220.48        39.56854
220.94        49.02081
221.40        67.41872
221.86        93.65187
222.32        109.0091
222.77        98.84973
223.23        76.37366
223.69        55.37886
224.15        43.26329
224.61        38.25579
225.06        36.44294
225.52        36.48932
225.98        37.18224
226.44        38.01981
226.90        39.42666
227.36         40.5284
227.81        39.74562
228.27        37.17453
228.73        33.41027
229.19        29.96196
229.65        28.55095
230.10        29.20374
230.56        31.33897
231.02        33.74834
231.48        34.48604
231.93        33.22839
232.39        30.98601
232.85        28.88477
233.31        28.39691
233.77         29.6573
234.22         32.1096
234.68         34.9542
235.14         37.0927
235.60        38.18037
236.05        38.59614
236.51         38.6364
236.97        38.84751
237.43        39.51591
237.88        40.47932
238.34        41.77912
238.80        43.81914
239.26        46.91418
239.71        51.72654
240.17        58.14285
240.63        65.24158
241.08        72.06873
241.54        77.53369
242.00        82.63593
242.46         90.7788
242.91        105.1566
243.37        127.9243
243.83         159.036
244.28        182.7879
244.74        177.8133
245.20        146.1956
245.66        111.4749
246.11        93.27144
246.57        91.42294
247.03        99.74853
247.48         110.507
247.94        110.5703
248.40        100.5883
248.85        88.43404
249.31        78.95118
249.77        73.93174
250.22        72.39069
250.68        72.48206
251.14        74.01538
251.59        76.36279
252.05        78.74319
252.51        81.93633
252.96        83.16956
253.42        80.38176
253.88        74.65631
254.33        67.17262
254.79        62.39965
255.25        64.06029
255.70        71.30849
256.16        82.15055
256.62        91.50064
257.07        91.84016
257.53        85.11774
257.99        76.23808
258.44        68.78278
258.90        65.70168
259.35        65.66825
259.81        67.39465
260.27        69.27611
260.72        69.49573
261.18        68.20066
261.63        65.93674
262.09        63.84191
262.55        62.52258
263.00        61.83904
263.46        61.57906
263.91        61.06376
264.37        59.82361
264.83         57.8489
265.28        55.44972
265.74        53.24878
266.19        51.65549
266.65        50.78893
267.11        50.36412
267.56        50.12846
268.02         49.7075
268.47        48.98159
268.93        48.09668
269.38        47.11263
269.84        46.17152
270.30        45.30347
270.75        44.45044
271.21        43.63179
271.66        42.83098
272.12        42.04358
272.57        41.23701
273.03        40.43549
273.48        39.65964
273.94        38.95139
274.39        38.26991
274.85        37.58276
275.31        36.69655
275.76        35.59746
276.22        34.41633
276.67        33.28997
277.13        32.50485
277.58        32.04926
278.04        31.84026
278.49        31.68844
278.95        31.43105
279.40         30.9709
279.86        30.44197
280.31         29.8329
280.77         29.2318
281.22         28.6341
281.68        28.06923
282.13        27.56803
282.59        27.25982
283.04        27.11997
283.50        27.14043
283.95        27.20919
284.41        27.15349
284.86        26.94126
285.32        26.65482
285.77        26.39556
286.22        26.37106
286.68        26.60425
287.13         26.9753
287.59        27.38618
288.04        27.64275
288.50        27.71727
288.95        27.65236
289.41        27.51002
289.86        27.31216
290.32        27.13188
290.77        26.96237
291.22        26.88831
291.68        27.01929
292.13        27.37181
292.59        27.95061
293.04        28.70246
293.50        29.54814
293.95        30.44933
294.40        31.42508
294.86        32.49643
295.31        33.69148
295.77        35.01406
296.22        36.41753
296.68        37.87681
297.13        39.34633
297.58        40.82021
298.04        42.31438
298.49        43.82457
298.95        45.36351
299.40         46.9212
299.85        48.49583
300.31        50.09904
300.76        51.72773
301.21        53.38753
301.67        55.09241
302.12        56.79387
302.58        58.50484
303.03        60.17571
303.48        61.82796
303.94          63.491
304.39        65.14319
304.84        66.81152
305.30         68.5116
305.75        70.18546
306.20         71.8345
306.66        73.46682
307.11        75.04166
307.57         76.5871
308.02        78.04348
308.47        79.42201
308.93        80.73087
309.38        81.96401
309.83         83.2253
310.29        84.53577
310.74        85.87205
311.19        87.13245
311.65        88.12357
312.10        88.79607
312.55         89.2077
313.00        89.55817
313.46        90.16177
313.91        91.05804
314.36        92.17913
314.82        93.31124
315.27        94.11713
315.72        94.49618
316.18        94.58491
316.63        94.54868
317.08        94.69418
317.53        95.10623
317.99        95.67555
318.44        96.31126
318.89        96.83801
319.35        97.18957
319.80        97.42771
320.25        97.58568
320.70        97.71204
321.16        97.83277
321.61        97.97279
322.06        98.11939
322.51        98.26894
322.97        98.41135
323.42        98.55017
323.87        98.76659
324.32        99.20934
324.78        99.85108
325.23        100.7107
325.68        101.4976
326.13        101.7427
326.59        101.3544
327.04        100.5092
327.49        99.59042
327.94        99.23544
328.39        99.59995
328.85        100.4711
329.30        101.6337
329.75        102.4478
330.20        102.6925
330.66        102.5198
331.11        102.1899
331.56        102.0496
332.01        102.2237
332.46        102.5803
332.92        102.9653
333.37          103.29
333.82        103.4543
334.27        103.5568
334.72         103.663
335.17        103.8479
335.63        104.1369
336.08         104.551
336.53        105.0866
336.98        105.7887
337.43         106.638
337.88        107.5793
338.34         108.518
338.79        109.4154
339.24        110.1682
339.69        110.7807
340.14        111.1629
340.59        111.1935
341.05        110.9223
341.50        110.4172
341.95        109.9213
342.40        109.7968
342.85        110.1301
343.30        110.8193
343.75        111.6964
344.20        112.4642
344.66        113.0127
345.11        113.4106
345.56        113.6705
346.01        113.8271
346.46        113.9224
346.91        113.9493
347.36        113.9703
347.81        114.1039
348.26        114.3652
348.72        114.7102
349.17        115.0971
349.62        115.4875
350.07        115.8426
350.52        116.1796
350.97        116.3629
351.42        116.1839
351.87        115.6376
352.32        114.8032
352.77        113.9626
353.22        113.5245
353.67        113.5657
354.13        113.9767
354.58        114.4879
355.03        114.6049
355.48        114.1981
355.93        113.4008
356.38        112.5266
356.83        112.0507
357.28        112.0504
357.73         112.348
358.18        112.6019
358.63        112.2751
359.08        111.2587
359.53        109.7668
359.98        108.1354
360.43        106.8424
360.88         106.007
361.33        105.4863
361.78        105.0924
362.23        104.5299
362.68        103.7252
363.13        102.7952
363.58        101.8563
364.03        101.0697
364.48        100.4634
364.93        99.94408
365.38        99.44135
365.83        98.86711
366.28         98.1899
366.73        97.45276
367.18        96.64884
367.63        95.75549
368.08        94.79221
368.53        93.78193
368.98        92.80646
369.43        91.99138
369.88        91.36719
370.33        90.90394
370.78        90.53529
371.23        90.14909
371.68        89.69876
372.13        89.19141
372.58        88.65533
373.03        88.14149
373.48        87.65031
373.93        87.15371
374.38        86.58498
374.83        85.85284
375.28        84.96122
375.72        83.95035
376.17        82.98161
376.62        82.18549
377.07        81.60672
377.52        81.22387
377.97        80.96289
378.42        80.70921
378.87        80.42062
379.32        80.09173
379.77        79.80534
380.22        79.68683
380.67        79.72789
381.11        79.90019
381.56        79.93742
382.01        79.50034
382.46        78.57021
382.91        77.32858
383.36        76.11611
383.81        75.39233
384.26        75.22848
384.71        75.44976
385.15        75.87984
385.60        76.11385
386.05        76.03607
386.50        75.74744
386.95        75.31029
387.40        74.83105
387.85        74.36278
388.29        73.82244
388.74        73.33572
389.19        72.89391
389.64         72.4957
390.09        72.14832
390.54        71.82556
390.98        71.45999
391.43        71.08905
391.88         70.7295
392.33        70.42367
392.78        70.20534
393.23        70.06535
393.67        70.00747
394.12         70.0444
394.57        69.89659
395.02        69.61904
395.47        69.59493
395.91         69.7473
396.36         69.5847
396.81        69.11005
397.26        68.59804
397.71        68.16296
398.15        67.84985
398.60        67.75275
399.05        67.75208
399.50        67.79072
399.95        67.86137
400.39        67.91028
400.84        67.75444
401.29        67.40412
401.74        67.02995
402.18        66.67104
402.63        66.21337
403.08        65.78012
403.53        65.57919
403.97        65.62308
404.42        65.84815
404.87        66.10706
405.32        66.13325
405.76        65.87283
406.21        65.51134
406.66        65.12788
407.11         64.7887
407.55        64.65421
408.00        64.71758
408.45        64.94852
408.90        65.59366
409.34        66.24889
409.79        65.65984
410.24        64.18587
410.68        63.49288
411.13        63.70432
411.58        63.91515
412.03        63.94898
412.47        63.93066
412.92        63.78564
413.37        63.52418
413.81        63.25384
414.26        63.18786
414.71        63.33546
415.15        63.65431
415.60        64.01798
416.05        64.27401
416.49          64.367
416.94        64.33659
417.39        64.23438
417.83        64.12483
418.28        64.04343
418.73        63.97225
419.17        63.92507
419.62        63.92875
420.07        63.97466
420.51        64.03555
420.96        64.11605
421.41        64.14315
421.85        64.07712
422.30        64.06515
422.74        64.02229
423.19         63.7676
423.64        63.35256
424.08        63.16129
424.53        63.20826
424.98        63.22023
425.42        63.19318
425.87        63.37345
426.31        63.67287
426.76        63.59718
427.21        63.23643
427.65        63.18119
428.10        63.40143
428.54         63.5293
428.99        63.59074
429.44        63.46718
429.88        63.33257
430.33        63.94313
430.77         64.9188
431.22        65.22466
431.66        64.78104
432.11        63.98909
432.56        63.20242
433.00        63.08488
433.45        63.76217
433.89        64.55676
434.34        64.77184
434.78         65.6396
435.23        64.58102
435.67        62.89075
436.12        63.86181
436.57        64.03535
437.01        64.36553
437.46        64.38736
437.90        64.10236
438.35        63.75631
438.79         63.4751
439.24         63.3832
439.68        63.47074
440.13        63.86434
440.57         64.4506
441.02        64.49664
441.46           64.11
441.91        64.58852
442.35        65.52686
442.80        65.40885
443.24         64.4872
443.69         64.3331
444.13         64.8503
444.58        65.95815
445.02        65.53387
445.47        65.62468
445.91         65.7125
446.36        65.85876
446.80        66.03241
447.24        66.28301
447.69        66.62499
448.13        66.29869
448.58        66.59547
449.02        66.46304
449.47        66.33975
449.91        66.25705
450.36         66.2598
450.80        66.30989
451.25         66.3841
451.69        66.39403
452.13        66.34937
452.58        66.32653
453.02        66.32677
453.47        66.29818
453.91        66.23743
454.36         66.1931
454.80        66.14278
455.24        65.97511
455.69        65.69296
456.13         65.4158
456.58         65.2801
457.02        64.83354
457.46        64.89263
457.91        65.08358
458.35        65.39098
458.79        65.29201
459.24        64.82969
459.68        64.08907
460.13        63.31636
460.57        63.12093
461.01        63.68692
461.46        63.37007
461.90        64.16169
462.34        65.07211
462.79        64.66444
463.23        64.73417
463.68        64.83236
464.12        64.72901
464.56        64.37612
465.01        63.54435
465.45        62.53752
465.89        62.27924
466.34        62.64801
466.78        63.01779
467.22        63.29551
467.67        62.61088
468.11        62.61767
468.55        62.54511
468.99        62.79442
469.44        62.71738
469.88        62.32317
470.32        62.00663
470.77        61.83601
471.21        61.75863
471.65        61.77526
472.10        61.89991
472.54         62.0779
472.98        62.18129
473.42        62.16299
473.87        62.20669
474.31         62.2212
474.75        61.79738
475.20        61.12982
475.64        60.98228
476.08        61.33513
476.52        61.36005
476.97        61.00375
477.41        60.95397
477.85         61.3544
478.29        60.70317
478.74        61.53607
479.18        61.52555
479.62        61.43259
480.06        61.34497
480.50        61.26695
480.95        61.20187
481.39        61.14607
481.83        60.79991
482.27         60.6798
482.72        60.91241
483.16        60.62592
483.60        60.66084
484.04        60.69007
484.48        60.98796
484.93        61.27927
485.37        60.80999
485.81        60.19231
486.25        59.71782
486.69        60.63581
487.14        62.01284
487.58        60.60836
488.02        60.85975
488.46        59.86207
488.90        60.20143
489.34        61.37735
489.79        61.85311
490.23        61.22672
490.67        60.53677
491.11        59.98786
491.55         59.9001
491.99        60.21294
492.43        60.24269
492.88        59.97538
493.32        59.97415
493.76        60.21954
494.20        60.36444
494.64        60.37435
495.08        60.31668
495.52         60.2295
495.96        60.22089
496.41        60.26363
496.85        60.26789
497.29        60.13224
497.73        60.01756
498.17        59.27565
498.61        59.34591
499.05         59.7923
499.49        60.01923
499.93        59.71889
500.37        59.64448
500.82        59.76797
501.26        59.84671
501.70        59.85855
502.14        60.03187
502.58         60.0492
503.02        60.15277
503.46          60.241
503.90        60.31507
504.34        60.33683
504.78        60.25575
505.22        60.06097
505.66        59.80753
506.10        59.61333
506.54        59.44406
506.98        59.28132
507.42        59.74632
507.86        60.03507
508.30        59.60193
508.74        59.91342
509.18        59.64854
509.62        59.39879
510.06        59.25999
510.50        59.28615
510.94        59.40411
511.38        59.54894
511.82        59.66462
512.26        59.72224
512.70        59.74868
513.14        59.75128
513.58        59.74419
514.02        59.74468
514.46        59.71078
514.90        59.65566
515.34        59.70414
515.78        59.87914
516.22        59.77169
516.66        60.02095
517.10        60.00309
517.54        59.90792
517.98        59.74525
518.42        59.56836
518.86        59.44875
519.30        59.40399
519.74        59.42198
520.18        59.47581
520.62        59.52156
521.06        59.54716
521.50        59.56863
521.93        59.60089
522.37        59.64771
522.81        59.71575
523.25        59.78846
523.69        59.85661
524.13        59.91329
524.57        59.94981
525.01        59.96118
525.45        59.93879
525.89        59.86913
526.32        59.74889
526.76        59.60826
527.20        59.45157
527.64        59.28988
528.08        59.13663
528.52         58.9943
528.96        58.89873
529.40        58.90192
529.83        59.00325
530.27        59.18842
530.71        59.38769
531.15        59.49599
531.59        59.48825
532.03         59.3896
532.46        59.24833
532.90        59.18649
533.34        59.21905
533.78        59.27418
534.22        59.31277
534.66        59.34919
535.09        59.32648
535.53        59.13339
535.97        58.82014
536.41        58.61614
536.85        58.55162
537.28        58.51152
537.72        58.50359
538.16         58.5844
538.60        58.74187
539.04        58.95536
539.47         59.1517
539.91        59.25689
540.35        59.24051
540.79         59.1253
541.22         58.9665
541.66        58.87592
542.10        58.87396
542.54        58.93108
542.97         58.9904
543.41        58.98939
543.85        58.90432
544.29        58.77148
544.72        58.62339
545.16        58.53211
545.60        58.50512
546.04        58.55557
546.47        58.66219
546.91        58.73256
547.35        58.78138
547.79        58.91937
548.22        59.11068
548.66        59.25769
549.10        59.36405
549.53        59.27489
549.97        59.04916
550.41        58.82249
550.84        58.69434
551.28        58.67601
551.72        58.71223
552.15        58.85225
552.59        59.13615
553.03        58.62569
553.46        59.08482
553.90        59.03369
554.34        58.98814
554.77        58.91175
555.21        58.85501
555.65        58.87312
556.08         58.9482
556.52        59.02668
556.96        59.06765
557.39        59.15965
557.83        59.24773
558.27        59.03521
558.70        58.59791
559.14        58.38892
559.57        58.42155
560.01        58.41829
560.45        58.37636
560.88        58.53883
561.32        58.84743
561.75        58.99772
562.19        58.98082
562.63        58.86239
563.06        58.70362
563.50        58.68517
563.93        58.74389
564.37         58.7355
564.80        58.68385
565.24        58.59823
565.68        58.35437
566.11        58.95275
566.55        58.27613
566.98        58.08032
567.42        57.89697
567.85        57.98634
568.29         58.3396
568.72        58.75856
569.16        59.21161
569.60        59.38758
570.03        59.45222
570.47        59.47241
570.90        59.61988
571.34        58.91756
571.77        59.37572
572.21        59.57787
572.64        59.53976
573.08        59.69061
573.51        58.96511
573.95         58.9633
574.38        59.45905
574.82        59.52404
575.25        58.83594
575.69        58.92693
576.12        59.31469
576.56        58.79057
576.99        58.92821
577.42        58.96441
577.86        59.15877
578.29         59.5881
578.73         59.5603
579.16         59.4676
579.60        59.11454
580.03        59.12825
580.47        59.13277
580.90        59.67627
581.33        59.52631
581.77        59.97762
582.20        59.54602
582.64        59.71299
583.07        59.20754
583.51        59.08538
583.94        59.24647
584.37        59.36028
584.81        59.40101
585.24        59.33886
585.68        59.19269
586.11        59.19822
586.54        59.18756
586.98        58.70686
587.41        58.25688
587.85        58.83103
588.28        58.93625
588.71         58.7344
589.15        58.61997
589.58        58.90362
590.01        58.56132
590.45        58.48756
590.88        59.17752
591.31         59.2293
591.75        58.99719
592.18        58.52634
592.61        57.96397
593.05         59.0198
593.48        59.46955
593.91        59.12025
594.35        59.24761
594.78        58.48716
595.21        58.01423
595.65        58.29245
596.08        59.40278
596.51         59.5276
596.94        58.62314
597.38        58.28472
597.81        58.53024
598.24        59.09577
598.68        58.88078
599.11        58.44541
599.54        59.51673
599.97        58.70903
600.41        59.12976
600.84        58.62014
601.27        58.79612
601.70        58.80825
602.14        58.78009
602.57        58.61132
603.00         58.4882
603.43        57.84668
603.87        58.88764
604.30        59.01555
604.73        58.95421
605.16        58.39896
605.60        58.51323
606.03        58.20596
606.46        57.87047
606.89        57.85035
607.32        58.64743
607.76        58.25876
608.19        58.49341
608.62        58.48526
609.05         58.3589
609.48        58.28601
609.92        58.94651
610.35         58.4906
610.78        58.19294
611.21         58.2417
611.64        58.26915
612.07        58.51117
612.50        58.42144
612.94        58.45654
613.37        58.48777
613.80        58.32541
614.23        57.84221
614.66         57.8591
615.09         58.2618
615.52        58.41288
615.96        58.24945
616.39        58.24655
616.82        58.43431
617.25        58.08907
617.68        57.98793
618.11        58.02914
618.54        58.36341
618.97        58.43646
619.40        58.23924
619.84         58.2091
620.27        58.19158
620.70        58.17815
621.13        58.07967
621.56        57.74674
621.99        57.27059
622.42        57.12132
622.85        57.32657
623.28        57.36839
623.71        57.20013
624.14         57.4447
624.57        57.91436
625.00        57.48771
625.43        57.88202
625.86        57.85978
626.29        58.03401
626.72        57.50558
627.15        57.86998
627.58        57.82878
628.01        57.79031
628.44        57.70502
628.87          57.591
629.30        57.37051
629.73        57.18168
630.16        57.26168
630.59        57.24708
631.02        57.45419
631.45        57.70736
631.88        57.85562
632.31        57.84455
632.74         57.9472
633.17        57.77137
633.60        57.70743
634.03        57.65066
634.46        57.59424
634.89        57.52185
635.32         57.4325
635.75        57.33595
636.18        57.17742
636.61        57.01565
637.04        56.97407
637.47        57.06571
637.89        57.24551
638.32        57.42203
638.75        57.50093
639.18        57.45194
639.61        57.30354
640.04        57.12335
640.47        57.01997
640.90        57.02372
641.33        57.10735
641.76        57.21896
642.18        57.28183
642.61        57.25628
643.04        57.16634
643.47        57.06596
643.90        57.05884
644.33        57.14921
644.76        57.26173
645.18         57.3415
645.61        57.32347
646.04          57.201
646.47        56.99834
646.90         56.7717
647.33        56.62969
647.75         56.5789
648.18        56.58524
648.61        56.68159
649.04        56.81493
649.47        56.87332
649.89        57.51397
650.32        57.16405
650.75        57.14722
651.18        57.07455
651.61        56.91295
652.03        56.79779
652.46        57.08779
652.89        57.60959
653.32          57.741
653.74        57.60999
654.17        56.75823
654.60        57.45093
655.03        57.33279
655.46        56.76707
655.88        56.81469
656.31        58.65344
656.74        59.42604
657.16        59.55089
657.59        60.17987
658.02        58.14634
658.45        57.93393
658.87        57.07838
659.30        57.44215
659.73        57.11075
660.15        58.06036
660.58        57.16319
661.01        57.11645
661.44        57.16528
661.86        56.89634
662.29        56.35741
662.72        56.70558
663.14        56.79519
663.57        56.74053
664.00        56.33084
664.42        56.31505
664.85        56.71488
665.27        57.13078
665.70        57.40643
666.13          57.522
666.55        57.44547
666.98        57.12639
667.41         56.6646
667.83        56.59695
668.26        56.38226
668.69        56.44438
669.11         56.5784
669.54        56.71025
669.96        56.80911
670.39        56.96387
670.82        57.13657
671.24        57.08813
671.67        56.88402
672.09        56.84873
672.52        56.99464
672.94        57.07521
673.37        57.06392
673.80        57.00856
674.22        56.93787
674.65        56.89593
675.07        56.90465
675.50        56.89645
675.92         56.8737
676.35        56.86686
676.77        56.87539
677.20        56.88151
677.62        56.88221
678.05         56.8749
678.47        56.85527
678.90         56.8335
679.32        56.80211
679.75        56.75349
680.17        56.68696
680.60        56.63705
681.02        56.57929
681.45        56.58613
681.87        56.66006
682.30        56.76902
682.72        56.89605
683.15        57.01237
683.57        57.09774
684.00        57.07161
684.42        56.98745
684.85        57.00937
685.27         57.1448
685.70        57.32486
686.12         57.4755
686.54        57.52042
686.97        57.43642
687.39         57.2565
687.82        57.04068
688.24        56.90208
688.66        56.87255
689.09        56.92401
689.51        57.02055
689.94         57.0836
690.36        57.09704
690.78        57.04037
691.21        56.96873
691.63        57.02513
692.06        57.19334
692.48         57.3124
692.90        57.31959
693.33        57.24791
693.75         57.0924
694.17        56.78823
694.60        56.46191
695.02        56.38444
695.44        56.57859
695.87        56.90104
696.29        57.22688
696.71         57.3427
697.14        57.22143
697.56        56.98229
697.98        56.75407
698.41        56.66019
698.83        56.72657
699.25        56.96546
699.68        57.24269
700.10        57.36577
700.52        57.26879
700.94        57.02658
701.37        56.76339
701.79        56.68216
702.21        56.82231
702.64        57.10217
703.06        57.41946
703.48        57.59418
703.90        57.57475
704.33        57.42334
704.75        57.20283
705.17        57.00422
705.59         56.8722
706.01        56.78025
706.44        56.73816
706.86        56.79226
707.28        56.93104
707.70        57.10696
708.12        57.28786
708.55        57.49625
708.97        57.67048
709.39        57.60808
709.81        57.36505
710.23        57.25283
710.66        57.30864
711.08        57.38761
711.50        57.42514
711.92        57.39845
712.34        57.29547
712.76         57.1398
713.19        56.96945
713.61        56.87676
714.03        56.87669
714.45        56.95187
714.87        57.08454
715.29        57.24879
715.71        57.42314
716.13        57.59422
716.56        57.73671
716.98        57.88731
717.40          58.008
717.82        58.09411
718.24        58.09349
718.66        57.92741
719.08        57.61103
719.50        57.20202
719.92         56.8214
720.34         56.6481
720.76        56.72056
721.19        56.96466
721.61        57.32816
722.03        57.67465
722.45        57.93586
722.87        58.13003
723.29        58.21685
723.71        58.13981
724.13        57.90825
724.55        57.54713
724.97        57.14676
725.39        56.86722
725.81        56.75793
726.23        56.76709
726.65        56.85483
727.07        57.07124
727.49        57.18102
727.91        57.36773
728.33         57.5504
728.75        57.70169
729.17        57.80565
729.59        57.84711
730.01         57.8525
730.43        57.87313
730.85        57.91847
731.27         57.9778
731.69        58.00631
732.10        57.93208
732.52        57.74782
732.94        57.49361
733.36         57.2659
733.78        57.11069
734.20        57.05014
734.62        57.27308
735.04        57.76146
735.46        57.42144
735.88        57.92197
736.30        57.87115
736.72        57.84039
737.13        57.96707
737.55        58.19279
737.97        58.43872
738.39         58.5752
738.81          58.289
739.23        57.72154
739.65        57.61674
740.06        57.94905
740.48        58.09713
740.90        58.02558
741.32        58.13959
741.74        58.41746
742.16        58.58781
742.57        58.61979
742.99        58.57972
743.41        58.48759
743.83        58.35601
744.25         58.2057
744.67        58.02516
745.08        57.87875
745.50        57.85323
745.92        57.96235
746.34        58.17094
746.75        58.39633
747.17        58.46551
747.59         58.3479
748.01        58.17041
748.42        57.98388
748.84        57.72816
749.26        57.52744
749.68        57.64223
750.09        57.99118
750.51        58.32283
750.93        58.47471
751.35        58.21104
751.76        57.65389
752.18        57.33518
752.60         57.3102
753.01        57.29018
753.43        57.22827
753.85        57.21598
754.27        57.24672
754.68        57.30711
755.10        57.39716
755.52        57.51241
755.93        57.63635
756.35        57.75227
756.77        57.90086
757.18        58.02504
757.60        58.10841
758.02        58.38392
758.43        58.79634
758.85        58.17841
759.26        58.50786
759.68        57.97319
760.10        57.28597
760.51        57.73248
760.93        58.05365
761.34        58.15835
761.76        57.99234
762.18        58.08728
762.59        58.53752
763.01        58.78587
763.42        58.83768
763.84        58.86787
764.26        58.87107
764.67        58.71511
765.09        58.49951
765.50        58.25616
765.92         58.1038
766.33        58.23462
766.75        58.48868
767.16        58.54778
767.58        58.32294
768.00        57.85612
768.41        57.40547
768.83        57.62389
769.24        58.36298
769.66        58.78878
770.07        58.75606
770.49        58.44653
770.90         58.0425
771.32        58.10764
771.73        58.59983
772.15        58.73605
772.56        58.50265
772.97          58.405
773.39        58.47612
773.80         58.5071
774.22        58.47593
774.63        58.49689
775.05         58.5153
775.46        58.50208
775.88        58.42928
776.29        58.31746
776.70        58.22429
777.12        58.26763
777.53        58.47131
777.95        58.76675
778.36        59.06172
778.77        59.16947
779.19         59.0643
779.60        58.82069
780.02         58.5213
780.43        58.36122
780.84        58.40543
781.26        58.37763
781.67        58.32837
782.09        58.81031
782.50        59.57035
782.91        59.47571
783.33        58.64604
783.74        58.31803
784.15        58.57077
784.57         58.7111
784.98        58.69642
785.39        58.75761
785.81        58.88126
786.22        59.01578
786.63        59.15448
787.04        59.28359
787.46         59.4029
787.87        59.48731
788.28        59.55172
788.70        59.58682
789.11        59.56976
789.52         59.5919
789.93         59.6251
790.35        59.45212
790.76        59.16164
791.17        59.13732
791.58        59.34896
792.00          59.386
792.41        59.23701
792.82        59.16574
793.23        59.18779
793.65        59.11264
794.06          59.004
794.47        59.14489
794.88        59.44158
795.29        59.53105
795.71        59.36257
796.12        59.14558
796.53        58.97324
796.94        58.94629
797.35         59.1068
797.76        59.42183
798.18        59.77888
798.59        60.03669
799.00        60.12793
799.41        60.09312
799.82        59.99125
800.23        59.92821
800.64        59.93093
801.06        59.93114
801.47        59.94382
801.88        59.91313
802.29        59.82803
802.70        59.72883
803.11        59.60245
803.52        59.41595
803.93        59.18431
804.34        58.91936
804.75        58.72528
805.17        58.76955
805.58        59.10441
805.99        59.61937
806.40        60.15472
806.81        60.53027
807.22        60.62183
807.63        60.29477
808.04        59.72821
808.45        59.39492
808.86         59.3933
809.27        59.55023
809.68        59.74757
810.09        59.83508
810.50        59.75863
810.91        59.56784
811.32        59.40297
811.73        59.48067
812.14        59.83935
812.55        60.40131
812.96        60.96838
813.37        61.18106
813.78        60.94184
814.19        60.38666
814.60        59.72775
815.01        59.25092
815.42        59.02645
815.83        58.97243
816.24        59.03499
816.65        59.10913
817.05        59.15678
817.46        59.20622
817.87        59.26284
818.28        59.28263
818.69         59.2617
819.10        59.17685
819.51        59.11246
819.92        59.23218
820.33        59.55653
820.74        60.03344
821.14        60.48811
821.55        60.63684
821.96        60.42644
822.37        59.94403
822.78          59.388
823.19         59.0989
823.60        59.17747
824.00        59.54696
824.41        60.01171
824.82        60.31865
825.23        60.36779
825.64        60.23881
826.04        60.02187
826.45        59.82648
826.86        59.71526
827.27        59.66043
827.68        59.63462
828.08        59.62398
828.49        59.57716
828.90        59.52126
829.31        59.52574
829.72        59.69443
830.12        60.05494
830.53        60.51915
830.94         60.9293
831.35        60.98299
831.75         60.6314
832.16          59.953
832.57        59.20261
832.97        58.76657
833.38        58.74652
833.79        59.01722
834.20        59.42859
834.60        59.73325
835.01        59.85734
835.42        59.91823
835.82        59.94307
836.23        59.90819
836.64        59.85575
837.04        59.73686
837.45        59.69448
837.86        60.03093
838.26        60.79305
838.67        61.85503
839.08        62.84679
839.48        63.06976
839.89        62.36675
840.29        61.00169
840.70        59.55246
841.11        58.68568
841.51        58.57107
841.92        59.00013
842.33        59.74089
842.73        60.36903
843.14        60.62865
843.54        60.69419
843.95        60.65826
844.35        60.71537
844.76        60.89977
845.17         61.1129
845.57        61.28823
845.98        61.31808
846.38        61.19411
846.79        60.96143
847.19        60.68075
847.60        60.41872
848.00        60.21492
848.41        60.03357
848.81        59.89696
849.22        59.76732
849.62        59.67411
850.03        59.62816
850.43        59.62413
850.84        59.58806
851.24        59.54308
851.65        59.44143
852.05         59.4188
852.46        59.62023
852.86        60.04631
853.27        60.61533
853.67        61.07827
854.07        61.19347
854.48        60.90564
854.88        60.32129
855.29        59.57495
855.69         59.0296
856.10        58.76788
856.50        58.78066
856.90        58.95776
857.31        59.11622
857.71        59.23644
858.12        59.30882
858.52        59.42036
858.92        59.61303
859.33        59.86872
859.73        60.18016
860.13        60.40745
860.54        60.35944
860.94        60.04471
861.34        59.52294
861.75        58.96767
862.15        58.69714
862.55         58.7739
862.96        59.07951
863.36        59.51552
863.76        59.82939
864.17        59.91938
864.57        59.89377
864.97        59.72543
865.38        59.38229
865.78        58.91749
866.18        58.32321
866.58        57.78342
866.99        57.63028
867.39        57.95097
867.79         58.6448
868.19         59.4573
868.60        59.97207
869.00        60.10876
869.40        59.94163
869.80        59.63663
870.21        59.51999
870.61        59.74419
871.01        60.15002
871.41        60.52598
871.81        60.58724
872.22        60.27485
872.62        59.67232
873.02        59.00056
873.42        58.62293
873.82         58.6403
874.22        58.95364
874.63         59.2949
875.03        59.25603
875.43        58.74884
875.83        57.92935
876.23        57.10505
876.63        56.74262
877.03        56.94867
877.44        57.53939
877.84        58.27348
878.24        58.77318
878.64        58.85371
879.04        58.47372
879.44        57.89339
879.84        57.63805
880.24        57.78552
880.64        58.12577
881.04        58.40915
881.44        58.27672
881.84        57.66103
882.24        56.72364
882.65        55.77224
883.05        55.26024
883.45        55.30653
883.85         55.7813
884.25        56.46566
884.65        56.97885
885.05        57.19327
885.45        57.21831
885.85        57.17676
886.25        57.26318
886.65        57.52632
887.05        57.87118
887.45        58.22584
887.85        58.48928
888.25        58.61537
888.65        58.64285
889.04        58.57526
889.44        58.43752
889.84        58.23889
890.24        57.97877
890.64        57.69645
891.04        57.46516
891.44        57.30766
891.84        57.21641
892.24        57.16469
892.64        57.09341
893.04        56.99959
893.44        56.92761
893.83        56.90163
894.23        56.91164
894.63        56.97728
895.03        57.05813
895.43        57.21534
895.83        57.56033
896.23        58.06838
896.63        58.67098
897.02        59.14284
897.42        59.15372
897.82        58.66071
898.22        57.82841
898.62         56.8964
899.01         56.2161
899.41        55.90745
899.81        55.85508
900.21        56.03275
900.61         56.3881
901.00        56.84998
901.40        57.41705
901.80        57.92081
902.20        58.08223
902.59         57.8662
902.99        57.34818
903.39        56.72298
903.79        56.33121
904.18        56.26355
904.58        56.41333
904.98        56.72529
905.38        57.11292
905.77        57.52274
906.17        58.00985
906.57        58.40683
906.96        58.43196
907.36        58.03774
907.76        57.30368
908.15        56.58083
908.55        56.42159
908.95        56.94138
909.34        57.98351
909.74        59.11178
910.14        59.66764
910.53        59.44791
910.93        58.68676
911.33        57.67955
911.72        56.87596
912.12        56.48058
912.52        56.35973
912.91         56.4145
913.31        56.51277
913.70        56.60348
914.10        56.70759
914.49        56.91168
914.89        57.26778
915.29        57.77787
915.68        58.39562
916.08        58.88087
916.47        58.91782
916.87        58.47626
917.26        57.65875
917.66        56.83099
918.05        56.41521
918.45        56.51012
918.84        57.04142
919.24        57.72509
919.64        58.16983
920.03        58.25742
920.42        58.06672
920.82        57.84541
921.21        57.93382
921.61          58.385
922.00        59.09337
922.40        59.77748
922.79        60.08292
923.19        59.88102
923.58         59.3425
923.98         58.6787
924.37        58.13242
924.77        57.80185
925.16        57.58276
925.55        57.48915
925.95        57.52831
926.34         57.6841
926.74        57.94036
927.13        58.15554
927.52        58.03059
927.92        57.57005
928.31        56.86275
928.70        56.14212
929.10        55.74741
929.49        55.74691
929.89        55.99192
930.28        56.45965
930.67        57.00079
931.07        57.50386
931.46        58.07678
931.85        58.48832
932.24        58.41029
932.64        57.85249
933.03        56.87473
933.42        55.94387
933.82        55.74966
934.21        56.41232
934.60        57.78145
934.99        59.32623
935.39        60.07646
935.78        59.79281
936.17        58.67756
936.56        57.29758
936.96        56.54784
937.35        56.65498
937.74        57.35254
938.13        58.15717
938.53        58.32192
938.92         57.6908
939.31        56.56905
939.70         55.3936
940.09        54.76688
940.49        54.80575
940.88        55.33044
941.27        56.09883
941.66        56.67373
942.05        56.89497
942.44        56.91851
942.84        56.85089
943.23        56.84236
943.62        56.95006
944.01        57.05609
944.40        57.19792
944.79        57.47482
945.18        57.85953
945.57        58.32478
945.97        58.60666
946.36        58.34707
946.75        57.47714
947.14        56.20658
947.53        54.88773
947.92        54.00539
948.31        53.68893
948.70        53.81595
949.09        54.27149
949.48        54.84138
949.87        55.40612
950.26        55.98704
950.65        56.53632
951.04        56.98326
951.43        57.29011
951.82        57.42948
952.21        57.37436
952.60        57.12057
952.99        56.72237
953.38        56.24704
953.77        55.82552
954.16        55.64745
954.55        55.75036
954.94         56.0585
955.33        56.52386
955.72        57.03899
956.11        57.52116
956.50        57.99276
956.89        58.25779
957.28         58.0111
957.66        57.23467
958.05        56.08012
958.44        54.93858
958.83        54.37742
959.22        54.49408
959.61        55.13393
960.00        55.97629
960.39        56.40645
960.78        56.22238
961.16        55.61713
961.55        54.87127
961.94        54.32516
962.33        54.09814
962.72        54.11372
963.11        54.30067
963.49        54.56707
963.88        54.78685
964.27        54.95079
964.66        55.19508
965.04        55.75484
965.43        56.60366
965.82         57.7349
966.21        58.65572
966.60         58.4611
966.98        57.00315
967.37        54.72319
967.76        52.54959
968.15        51.64986
968.53        52.21013
968.92        53.93983
969.31         56.1571
969.69        57.44381
970.08        57.23076
970.47        55.97345
970.86        54.46435
971.24        53.83161
971.63        54.33026
972.02        55.61478
972.40        57.18512
972.79         57.8546
973.17        57.31416
973.56        56.02834
973.95        54.58341
974.33        53.69254
974.72        53.52048
975.11        53.78478
975.49        54.33475
975.88        54.85568
976.26        55.22652
976.65        55.53652
977.04         55.6809
977.42         55.4507
977.81         54.8182
978.19         53.8003
978.58        52.85377
978.96        52.69117
979.35        53.43826
979.74        54.93526
980.12        56.65763
980.51        57.41929
980.89        57.03712
981.28        55.86995
981.66        54.56775
982.05        54.03899
982.43        54.50323
982.82        55.62029
983.20        57.19682
983.59         58.7734
983.97        60.13766
984.35         61.4065
984.74        62.18588
985.12         62.0643
985.51         60.9858
985.89        59.12359
986.28        57.23701
986.66        56.41082
987.04        56.93701
987.43        58.53416
987.81        60.61714
988.20        61.88302
988.58         61.8791
988.96        60.90865
989.35        59.48537
989.73        58.37165
990.12         57.7578
990.50        57.42947
990.88        57.12939
991.27        56.48182
991.65        55.45207
992.03        54.30242
992.42        53.37231
992.80        53.03981
993.18        53.38887
993.56        54.28765
993.95        55.43633
994.33        56.42802
994.71        56.95918
995.10        57.17882
995.48        57.20521
995.86        57.35838
996.24        57.72205
996.63        58.02873
997.01           58.37
997.39        58.64706
997.77        58.78621
998.15        58.94675
998.54        58.85454
998.92        57.96027
999.30        56.35968
999.68        54.27741
1000.06        52.53379
1000.45        52.26712
1000.83        53.76188
1001.21        56.79783
1001.59        60.51035
1001.97        62.75998
1002.35        62.70127
1002.73        60.99509
1003.12         58.8309
1003.50        57.68501
1003.88        58.02486
1004.26        59.29689
1004.64        61.25003
1005.02        63.28516
1005.40        64.93372
1005.78        66.45843
1006.16        67.29356
1006.54        66.52893
1006.92        64.27851
1007.30        60.94542
1007.69        57.80068
1008.07        56.51812
1008.45        57.58337
1008.83        60.58179
1009.21        64.70486
1009.59        67.75198
1009.97        68.50017
1010.35        67.54891
1010.73        65.25514
1011.11        62.22098
1011.49        59.01184
1011.86        55.64122
1012.24        52.88483
1012.62        51.77459
1013.00        52.39532
1013.38        54.56923
1013.76        57.64747
1014.14        59.77886
1014.52        60.04441
1014.90        58.91431
1015.28        57.01564
1015.66        55.32621
1016.04        54.16898
1016.41        53.17612
1016.79        52.62174
1017.17         53.0857
1017.55        54.52167
1017.93         56.7253
1018.31        58.88227
1018.69        59.78364
1019.06        59.21458
1019.44        57.42732
1019.82        54.91866
1020.20        53.12235
1020.58        52.70271
1020.95        53.07142
1021.33        54.01179
1021.71        55.18597
1022.09         56.5095
1022.46        58.44611
1022.84        60.20324
1023.22        59.86775
1023.60        57.02561
1023.97        52.22474
1024.35        48.02525
1024.73        47.32409
