SpectraSmart Spectrum 2.9.0.0
--------- Device Information -----------
Spectrum Name :  反射率_0
Saving Time :  2024/04/26 23:18:23
Spectro-Module Model Name : SE2030-DUVN
Spectro-Module Serial Number : OS361AC55029948
Wavelength Start : 200
Wavelength End : 1025
Wavelength Unit : Wavelength(nm)
Spectrum Unit : Reflectance(%)
-----------Spectrum Setting ------------
Integration Time : 20ms
Average : 10
Boxcar : 0
Background removal :  enabled
linearity correction :  enabled
SC :  disabled
Intensity correction :  disabled
DWT denoise :  enabled
savitzky-golay :  disabled
FFT :  disabled
Running average :  disabled
Kalman :  disabled
High pass :  disabled
---------------BEGIN--------------------
Wavelength(nm)             Reflectance(%)
200.29               0
200.75        34.07772
201.21         36.6377
201.67        39.78246
202.13        41.67528
202.58        42.13356
203.04        41.97086
203.50         42.1029
203.96        44.48028
204.42          50.002
204.88        57.86551
205.34        65.20268
205.80        67.64804
206.26        64.40609
206.72        57.28345
207.18        50.01825
207.64        45.35983
208.10        43.16393
208.55        43.18375
209.01        43.56654
209.47        40.32103
209.93        34.28371
210.39        29.28892
210.85         27.3946
211.31         29.7412
211.77        37.56184
212.23        56.14898
212.69        104.3629
213.14        192.3155
213.60        201.8246
214.06        149.8629
214.52        109.9662
214.98        88.44008
215.44        74.92531
215.90        62.34601
216.36        51.96028
216.81        47.31142
217.27        49.77295
217.73        61.25042
218.19        79.03131
218.65         84.6324
219.11        72.10618
219.57        54.11277
220.02        42.08564
220.48         41.1671
220.94        50.18027
221.40        69.45938
221.86        98.33772
222.32        117.9976
222.77        111.6688
223.23         91.8113
223.69        71.81074
224.15        59.17007
224.61        52.81483
225.06        49.22422
225.52         47.7425
225.98        47.72836
226.44        48.72394
226.90         50.9733
227.36        53.41668
227.81        54.08385
228.27        52.80212
228.73        50.05362
229.19        47.48926
229.65        47.08907
230.10        48.87273
230.56        52.21295
231.02        55.36399
231.48        55.58768
231.93        52.61733
232.39        48.00587
232.85        43.73252
233.31        42.31584
233.77        43.96357
234.22        47.75328
234.68        52.24408
235.14         55.2723
235.60        56.16678
236.05        55.55407
236.51        54.11411
236.97        53.35606
237.43          53.929
237.88        55.35294
238.34        57.19176
238.80        59.07224
239.26        60.97352
239.71        63.75168
240.17        67.19434
240.63         70.8054
241.08        74.27759
241.54         76.6244
242.00        79.59701
242.46        87.55032
242.91        104.1997
243.37         132.936
243.83        174.0475
244.28        207.1513
244.74        203.8361
245.20        165.1805
245.66        120.2103
246.11        94.09743
246.57        87.07481
247.03        91.83936
247.48        100.4533
247.94        99.91307
248.40        90.58858
248.85        79.81071
249.31        72.22189
249.77        69.96173
250.22        72.37273
250.68        78.05652
251.14        86.11419
251.59        92.22084
252.05        93.21039
252.51        91.46422
252.96        87.17085
253.42        81.08601
253.88        74.40014
254.33        67.41221
254.79        63.60073
255.25        65.75817
255.70        72.99603
256.16        83.62035
256.62        93.19077
257.07        94.85962
257.53        90.07578
257.99        83.04536
258.44        76.74426
258.90        73.85956
259.35        73.26524
259.81        74.01498
260.27        74.96221
260.72        74.88865
261.18        73.94443
261.63        72.33585
262.09        70.84746
262.55        69.67118
263.00        68.69819
263.46        67.97369
263.91        67.04169
264.37        65.74992
264.83        64.10438
265.28        62.24756
265.74        60.68356
266.19        59.66798
266.65          59.278
267.11        59.23436
267.56        59.29688
268.02        59.10084
268.47        58.52074
268.93        57.72293
269.38        56.66586
269.84        55.36703
270.30        53.87077
270.75        52.16698
271.21        50.57159
271.66        49.49078
272.12        48.98081
272.57        48.89323
273.03        48.84087
273.48        48.17352
273.94        46.84392
274.39        45.06285
274.85        43.29406
275.31        42.01461
275.76        41.28279
276.22        40.94515
276.67        40.74354
277.13         40.4312
277.58        39.87326
278.04        39.20167
278.49        38.42483
278.95        37.68121
279.40        36.95643
279.86        36.28937
280.31        35.61235
280.77        34.96292
281.22        34.30553
281.68        33.71556
282.13        33.19992
282.59        32.86124
283.04        32.66027
283.50        32.58244
283.95        32.53973
284.41        32.41534
284.86        32.18123
285.32        31.90899
285.77        31.63963
286.22        31.50231
286.68        31.51701
287.13        31.59468
287.59        31.71755
288.04        31.80817
288.50        31.86113
288.95         31.8665
289.41        31.81984
289.86        31.63475
290.32        31.36621
290.77        31.04722
291.22        30.79302
291.68        30.75492
292.13        30.96461
292.59        31.40886
293.04        32.05569
293.50        32.86628
293.95        33.79884
294.40         34.8596
294.86        36.01135
295.31        37.18555
295.77        38.37231
296.22        39.56069
296.68        40.78887
297.13        42.10776
297.58        43.54251
298.04        45.08442
298.49        46.70399
298.95        48.37326
299.40          50.063
299.85        51.78047
300.31        53.53925
300.76        55.33459
301.21        57.17123
301.67        59.05968
302.12        60.93715
302.58        62.80542
303.03        64.61366
303.48        66.39096
303.94        68.19617
304.39         70.0455
304.84        71.97174
305.30        73.97512
305.75        75.95924
306.20        77.87229
306.66        79.71116
307.11        81.44913
307.57        83.14248
308.02        84.76437
308.47        86.34088
308.93        87.87346
309.38        89.34279
309.83        90.84399
310.29        92.39404
310.74        93.96764
311.19        95.47182
311.65        96.72094
312.10        97.65756
312.55        98.33198
313.00        98.91192
313.46        99.67001
313.91        100.6407
314.36        101.7691
314.82        102.8914
315.27        103.7557
315.72        104.2745
316.18        104.5597
316.63        104.7092
317.08        104.9297
317.53        105.2876
317.99        105.7094
318.44        106.1688
318.89        106.5919
319.35        106.9448
319.80        107.2642
320.25        107.5441
320.70         107.769
321.16        107.9456
321.61        108.1217
322.06        108.3092
322.51        108.5445
322.97        108.8211
323.42         109.118
323.87        109.4883
324.32        110.0437
324.78        110.7423
325.23        111.6268
325.68        112.4046
326.13        112.6073
326.59        112.1556
327.04        111.2313
327.49        110.2587
327.94        109.9413
328.39        110.4458
328.85        111.5397
329.30        112.9605
329.75        113.9494
330.20        114.2471
330.66        114.0323
331.11        113.6261
331.56        113.4712
332.01        113.7237
332.46        114.2223
332.92        114.7744
333.37        115.2418
333.82        115.4958
334.27        115.6523
334.72        115.7921
335.17        116.0125
335.63        116.3448
336.08        116.8063
336.53        117.3786
336.98        118.0912
337.43        118.9213
337.88        119.8172
338.34        120.7043
338.79        121.5892
339.24         122.373
339.69        123.0541
340.14        123.5029
340.59        123.5324
341.05        123.1871
341.50        122.5609
341.95        121.9575
342.40        121.8302
342.85        122.2853
343.30        123.1909
343.75        124.3294
344.20        125.3212
344.66         126.026
345.11        126.5314
345.56        126.8715
346.01        127.1161
346.46        127.3206
346.91        127.4658
347.36        127.5986
347.81        127.8207
348.26        128.1382
348.72        128.5014
349.17        128.8957
349.62        129.3264
350.07        129.7588
350.52        130.2093
350.97        130.4612
351.42        130.1763
351.87        129.3441
352.32        128.0968
352.77        126.8713
353.22        126.3038
353.67        126.5058
354.13        127.2911
354.58        128.2307
355.03        128.5534
355.48        128.0559
355.93        126.9638
356.38         125.722
356.83        125.0047
357.28        124.9432
357.73        125.2904
358.18        125.6522
358.63        125.4086
359.08        124.4168
359.53        122.9249
359.98        121.2661
360.43        119.9059
360.88        118.9679
361.33        118.3049
361.78        117.7575
362.23         117.085
362.68        116.2246
363.13        115.2788
363.58        114.3332
364.03        113.4968
364.48        112.7856
364.93        112.1272
365.38        111.4717
365.83        110.7638
366.28        109.9875
366.73        109.1769
367.18        108.3277
367.63        107.4218
368.08        106.4711
368.53        105.4885
368.98        104.5394
369.43        103.7224
369.88        103.0584
370.33        102.5255
370.78        102.0527
371.23        101.5219
371.68         100.901
372.13        100.2141
372.58        99.52735
373.03        98.95029
373.48         98.4908
373.93         98.0893
374.38        97.65624
374.83         97.0615
375.28        96.28073
375.72        95.35651
376.17        94.40699
376.62        93.48807
377.07        92.65031
377.52        91.90625
377.97        91.28059
378.42        90.82475
378.87        90.53301
379.32        90.34142
379.77        90.25487
380.22        90.27828
380.67        90.36632
381.11        90.53483
381.56        90.50682
382.01        89.94142
382.46        88.84209
382.91        87.39597
383.36         86.0138
383.81        85.25382
384.26        85.19283
384.71        85.64107
385.15        86.30691
385.60        86.66829
386.05        86.55848
386.50        86.12466
386.95        85.47972
387.40         84.8123
387.85        84.21096
388.29        83.56812
388.74        83.02311
389.19        82.56194
389.64         82.1756
390.09        81.86833
390.54        81.60439
390.98        81.29234
391.43        80.96088
391.88        80.62992
392.33        80.33544
392.78        80.06892
393.23        79.82364
393.67        79.67571
394.12        79.69643
394.57        79.33855
395.02        79.25203
395.47        79.22083
395.91        79.35406
396.36        79.23132
396.81        78.85311
397.26        78.43023
397.71        78.01369
398.15        77.61843
398.60        77.36155
399.05        77.07034
399.50        76.77859
399.95        76.80869
400.39        77.05221
400.84        76.78497
401.29        76.08233
401.74        75.79326
402.18        75.88955
402.63        75.54347
403.08        74.87173
403.53         74.5918
403.97        74.73241
404.42        74.95251
404.87        75.12196
405.32        75.14938
405.76        74.98471
406.21        74.69952
406.66        74.35252
407.11        74.10073
407.55        74.01432
408.00        73.85503
408.45        73.66717
408.90        73.90169
409.34        74.35214
409.79        74.12132
410.24         73.3626
410.68         73.0284
411.13        73.17522
411.58        73.26851
412.03        73.21705
412.47        73.12785
412.92        72.96189
413.37        72.73266
413.81        72.49769
414.26        72.40861
414.71        72.46304
415.15        72.64955
415.60        72.88606
416.05        73.10728
416.49        73.27918
416.94        73.40183
417.39        73.47871
417.83         73.5018
418.28        73.48405
418.73        73.43024
419.17        73.36167
419.62        73.31986
420.07        73.30989
420.51        73.29811
420.96        73.32375
421.41        73.36099
421.85        73.36932
422.30        73.48948
422.74        73.58636
423.19        73.41142
423.64        73.00744
424.08        72.79773
424.53        72.81625
424.98        72.83701
425.42        72.87278
425.87        73.09751
426.31        73.42434
426.76        73.48958
427.21         73.3371
427.65        73.26477
428.10        73.24612
428.54        73.38507
428.99        73.41322
429.44        73.21677
429.88        72.93247
430.33        73.72742
430.77        75.11894
431.22         75.5349
431.66        74.87798
432.11        74.24938
432.56        73.47701
433.00        73.33076
433.45        73.79514
433.89        74.72733
434.34        75.38946
434.78        76.03184
435.23        75.07616
435.67         73.2507
436.12         73.8027
436.57        74.01198
437.01        74.60755
437.46        74.92229
437.90        75.00186
438.35        73.86003
438.79        74.33416
439.24        74.22607
439.68        74.32549
440.13        74.57324
440.57        74.97091
441.02        75.21825
441.46        75.24984
441.91        75.74202
442.35         76.4193
442.80        76.01312
443.24        75.38604
443.69        75.37971
444.13        76.11598
444.58         76.4631
445.02        76.35308
445.47        76.38216
445.91        76.60291
446.36        76.81245
446.80        76.97149
447.24        77.48126
447.69        77.64965
448.13        77.78677
448.58        77.87912
449.02        77.89082
449.47        77.89077
449.91        77.81163
450.36        77.69918
450.80        77.57499
451.25        77.48816
451.69          77.426
452.13        77.41267
452.58        77.45136
453.02        77.51926
453.47        77.58309
453.91        77.61404
454.36           77.62
454.80        77.60685
455.24        77.47421
455.69        77.21609
456.13         77.0917
456.58        77.15002
457.02        76.41435
457.46         75.9126
457.91        76.10019
458.35        76.87838
458.79         76.8871
459.24        76.14438
459.68        75.21352
460.13        74.41023
460.57        74.17715
461.01        74.71465
461.46        74.61613
461.90        75.39972
462.34        76.40353
462.79         75.8279
463.23        75.62361
463.68        76.35034
464.12        76.18608
464.56        75.49069
465.01        74.58895
465.45        73.73488
465.89        73.52161
466.34        73.81797
466.78        74.03157
467.22        74.09692
467.67        73.66588
468.11        73.66101
468.55        73.78138
468.99        74.17382
469.44         74.2385
469.88        73.95991
470.32         73.7002
470.77        73.52523
471.21        73.38386
471.65        73.28978
472.10        73.26741
472.54        73.28999
472.98        73.29176
473.42        73.24843
473.87        73.27827
474.31        73.27971
474.75        72.97226
475.20        72.52294
475.64        72.24238
476.08        72.62158
476.52        72.54103
476.97         72.1016
477.41        71.88282
477.85        72.06435
478.29        71.52905
478.74        71.98056
479.18        72.55193
479.62        72.51153
480.06        72.63258
480.50        72.49974
480.95        72.47867
481.39        72.64497
481.83        71.75229
482.27        71.91882
482.72         72.2635
483.16          71.854
483.60         71.9436
484.04        72.09215
484.48         72.3752
484.93        72.47483
485.37        72.39079
485.81        71.97953
486.25        71.07121
486.69        71.88794
487.14        73.26003
487.58        72.30769
488.02        72.25533
488.46        71.15545
488.90        70.98818
489.34        72.47237
489.79        73.57868
490.23        72.67919
490.67        71.94156
491.11        71.19419
491.55        70.97893
491.99        71.25063
492.43        71.22106
492.88        70.89985
493.32        70.94401
493.76        71.32056
494.20        71.56285
494.64        71.61338
495.08        71.64024
495.52        71.64033
495.96        71.52449
496.41        71.34633
496.85        71.31033
497.29        71.29369
497.73        71.38595
498.17        70.72135
498.61        70.63442
499.05        70.84627
499.49        71.06633
499.93        70.99265
500.37        71.08898
500.82        71.24499
501.26        71.23531
501.70        71.09734
502.14        71.09295
502.58         71.2382
503.02        71.34669
503.46        71.41436
503.90        71.53162
504.34        71.70972
504.78        71.66805
505.22        71.40793
505.66        71.04314
506.10        70.72005
506.54        70.38943
506.98        70.57137
507.42        70.72773
507.86        70.91301
508.30        71.03106
508.74        71.04165
509.18        70.95109
509.62        70.79534
510.06          70.668
510.50        70.59737
510.94        70.54716
511.38         70.5385
511.82        70.60955
512.26        70.75637
512.70        70.97291
513.14        71.18906
513.58        71.28655
514.02        71.24211
514.46         71.0846
514.90         70.8952
515.34        70.82362
515.78        70.88014
516.22        71.03676
516.66        71.21744
517.10        71.31033
517.54        71.28329
517.98        71.17636
518.42        71.02848
518.86         70.8949
519.30        70.79703
519.74        70.72905
520.18         70.6877
520.62         70.6349
521.06        70.58617
521.50        70.63133
521.93        70.74356
522.37        70.78482
522.81        70.75026
523.25        70.68983
523.69        70.65824
524.13        70.72624
524.57        70.89857
525.01        71.13742
525.45        71.35856
525.89        71.42838
526.32        71.30945
526.76        71.06883
527.20         70.7681
527.64        70.51051
528.08        70.33649
528.52        70.22247
528.96        70.17063
529.40        70.18124
529.83        70.24136
530.27        70.35856
530.71        70.49233
531.15        70.58228
531.59        70.61063
532.03        70.58095
532.46        70.50701
532.90        70.46651
533.34        70.46355
533.78        70.44189
534.22        70.38472
534.66        70.35291
535.09        70.29459
535.53        70.06236
535.97        69.71809
536.41        69.53892
536.85        69.55244
537.28         69.6161
537.72        69.70993
538.16        69.85292
538.60        70.02087
539.04        70.20547
539.47        70.34328
539.91        70.38515
540.35        70.30997
540.79        70.13653
541.22        69.93675
541.66        69.85039
542.10         69.8999
542.54        70.05024
542.97        70.20991
543.41        70.26772
543.85        70.18356
544.29        69.99889
544.72        69.78166
545.16         69.6685
545.60         69.6785
546.04        69.81179
546.47        69.99149
546.91        70.05169
547.35        70.00262
547.79        69.93566
548.22        69.90157
548.66        70.06921
549.10        70.40454
549.53        70.38021
549.97        70.06509
550.41        69.86798
550.84         69.8952
551.28        70.02075
551.72        70.13644
552.15         70.2666
552.59        70.46701
553.03         69.7327
553.46        70.21378
553.90        70.07398
554.34          69.922
554.77        70.08575
555.21          69.992
555.65        70.08632
556.08         70.1345
556.52        70.17607
556.96        70.19746
557.39        70.17918
557.83        70.06918
558.27        70.20199
558.70        69.59932
559.14        69.48027
559.57        69.53217
560.01        69.53647
560.45        69.49573
560.88        69.61827
561.32          69.889
561.75        70.07059
562.19         70.1531
562.63        70.11031
563.06        69.98122
563.50        70.05039
563.93        70.09275
564.37        70.10569
564.80         70.0732
565.24        69.96461
565.68        69.64146
566.11        70.34345
566.55        69.55057
566.98        69.33933
567.42        69.13602
567.85        69.23956
568.29        69.63854
568.72        70.06104
569.16        70.54565
569.60        70.71134
570.03        70.79695
570.47        70.78215
570.90        70.83219
571.34        70.16763
571.77        70.73084
572.21        70.79002
572.64        70.66371
573.08        71.21586
573.51        70.32507
573.95          70.242
574.38        70.49062
574.82         70.9187
575.25        70.29805
575.69        70.52592
576.12        70.42492
576.56        69.89407
576.99         69.9941
577.42        70.11252
577.86         70.4701
578.29        71.09337
578.73        70.95159
579.16        70.87228
579.60        70.57425
580.03        70.74799
580.47        70.33062
580.90        71.26036
581.33        71.32697
581.77        71.12724
582.20        70.79508
582.64        71.60271
583.07         70.9387
583.51         70.7125
583.94        70.39139
584.37        70.46689
584.81        70.93124
585.24        70.95327
585.68         70.5983
586.11        70.42123
586.54        70.97263
586.98        69.99523
587.41        69.72565
587.85        70.19827
588.28        70.19569
588.71        70.18344
589.15        69.63279
589.58        70.35078
590.01        69.70137
590.45        69.71973
590.88        70.54498
591.31        70.56207
591.75        70.15781
592.18        69.65017
592.61        69.24372
593.05        70.16215
593.48        70.58966
593.91        70.36926
594.35        70.41566
594.78        69.39791
595.21        69.29163
595.65        69.74782
596.08        71.14882
596.51        70.85503
596.94        70.41594
597.38        69.96532
597.81        69.90422
598.24        71.15426
598.68        70.43232
599.11        70.08861
599.54        71.20955
599.97        70.40686
600.41        70.29771
600.84        69.66108
601.27        70.13943
601.70        70.16782
602.14        70.60326
602.57        70.38097
603.00        69.90308
603.43        69.51035
603.87        70.37708
604.30        70.50583
604.73        70.31197
605.16          69.655
605.60        69.69663
606.03        69.32983
606.46        68.94731
606.89        69.12455
607.32        69.84933
607.76        69.59745
608.19        69.99051
608.62        69.86755
609.05        69.80917
609.48        69.91675
609.92         70.7153
610.35        70.29731
610.78        69.74423
611.21        69.90501
611.64        69.81899
612.07        70.14787
612.50        70.10067
612.94        70.09959
613.37        69.96486
613.80        69.89104
614.23         69.0991
614.66         69.1157
615.09        69.61774
615.52        69.85294
615.96        69.71178
616.39         69.7399
616.82        69.97547
617.25        69.49758
617.68        69.30034
618.11        69.39813
618.54        69.93982
618.97        70.00941
619.40        69.63149
619.84        69.55649
620.27        69.61735
620.70        69.74989
621.13        69.79035
621.56        69.22446
621.99        68.61072
622.42        68.27812
622.85        68.39241
623.28        68.61672
623.71        68.89747
624.14        68.66969
624.57        69.11165
625.00        68.97516
625.43         69.0396
625.86        69.00436
626.29        69.11491
626.72        68.41411
627.15        68.92849
627.58        68.91469
628.01         68.8591
628.44        69.05714
628.87        68.97787
629.30        68.58784
629.73        68.49059
630.16        68.70417
630.59        68.75344
631.02        69.12617
631.45        69.51623
631.88         69.7535
632.31        69.77174
632.74        69.63725
633.17        69.40775
633.60        69.16508
634.03        68.95589
634.46        68.75581
634.89        68.58629
635.32        68.49741
635.75        68.49839
636.18        68.51236
636.61        68.53489
637.04        68.59445
637.47         68.6798
637.89         68.7662
638.32        68.81454
638.75        68.83611
639.18        68.82713
639.61        68.78092
640.04        68.71923
640.47        68.67901
640.90        68.67159
641.33        68.69867
641.76        68.73305
642.18        68.73483
642.61        68.67607
643.04        68.57704
643.47          68.493
643.90        68.51171
644.33         68.6439
644.76        68.85872
645.18        69.06945
645.61        69.11988
646.04        68.98423
646.47        68.70961
646.90        68.40175
647.33        68.22124
647.75        68.18914
648.18        68.33186
648.61        68.59405
649.04        68.64125
649.47        68.39301
649.89         68.9116
650.32        68.41647
650.75        68.55239
651.18        68.77169
651.61        68.79327
652.03        68.68239
652.46        68.89589
652.89        69.28097
653.32        69.20863
653.74        68.91731
654.17        68.08701
654.60        68.78344
655.03        69.15237
655.46        68.03244
655.88        67.87635
656.31        69.87558
656.74          70.718
657.16        71.82082
657.59        72.77354
658.02        69.24287
658.45        69.59678
658.87        69.05668
659.30        69.25249
659.73        68.89388
660.15        69.62384
660.58        68.76327
661.01        68.65084
661.44        68.60592
661.86        68.38963
662.29        67.99546
662.72        68.51531
663.14        68.56239
663.57        68.54951
664.00        68.20531
664.42         68.1917
664.85        68.52518
665.27        68.90876
665.70        69.21002
666.13        69.07221
666.55        69.07782
666.98        68.67249
667.41        68.14766
667.83        68.11835
668.26        67.92876
668.69        68.08782
669.11        68.31142
669.54        68.48814
669.96        68.57928
670.39        68.63596
670.82         68.6759
671.24        68.66961
671.67        68.64256
672.09        68.61763
672.52        68.63092
672.94        68.70037
673.37        68.80228
673.80        68.82207
674.22        68.77157
674.65        68.73605
675.07        68.73549
675.50         68.6917
675.92         68.6065
676.35        68.50909
676.77        68.40843
677.20        68.29556
677.62        68.20493
678.05        68.18974
678.47        68.25365
678.90         68.3878
679.32        68.53278
679.75        68.60581
680.17        68.58259
680.60        68.48804
681.02        68.38095
681.45        68.35166
681.87        68.43433
682.30        68.58885
682.72        68.77004
683.15        68.86514
683.57        68.86011
684.00         68.7627
684.42        68.64796
684.85        68.65011
685.27        68.78021
685.70         68.9967
686.12         69.1984
686.54         69.2603
686.97        69.15822
687.39         68.9147
687.82        68.60374
688.24        68.47308
688.66        68.53107
689.09        68.44844
689.51        68.59922
689.94        68.68846
690.36         68.8162
690.78        68.92201
691.21         69.0069
691.63        69.06789
692.06         69.1002
692.48        69.13098
692.90        69.12693
693.33        68.97205
693.75        68.78962
694.17        68.47295
694.60        68.18756
695.02        68.15183
695.44        68.37262
695.87        68.77721
696.29        69.19423
696.71        69.17599
697.14        68.77079
697.56        68.48278
697.98        68.43822
698.41        68.44243
698.83        68.51035
699.25        68.85455
699.68        69.29362
700.10        69.46366
700.52        69.27449
700.94        68.85445
701.37        68.39514
701.79        68.20803
702.21        68.36196
702.64        68.74017
703.06        69.19329
703.48        69.46143
703.90        69.46738
704.33        69.29646
704.75        69.04069
705.17        68.83588
705.59        68.73961
706.01        68.70656
706.44        68.72566
706.86        68.81817
707.28         68.9641
707.70        69.12175
708.12        69.27723
708.55        69.49179
708.97        69.70138
709.39        69.65533
709.81        69.40734
710.23        69.30357
710.66        69.37878
711.08        69.47005
711.50        69.49966
711.92        69.43817
712.34        69.27505
712.76        69.04048
713.19        68.79238
713.61        68.66385
714.03        68.67722
714.45        68.80312
714.87         69.0108
715.29        69.25377
715.71        69.50009
716.13        69.73904
716.56        69.93268
716.98        70.11306
717.40        70.23617
717.82        70.30269
718.24        70.27194
718.66        70.08564
719.08        69.76747
719.50        69.36978
719.92         69.0188
720.34        68.90091
720.76        69.04839
721.19        69.37578
721.61        69.81203
722.03        70.17964
722.45        70.40013
722.87        70.50649
723.29        70.47342
723.71        70.27041
724.13        69.92662
724.55        69.47043
724.97        69.01314
725.39        68.74617
725.81        68.72035
726.23        68.86491
726.65        69.11037
727.07        69.48713
727.49        69.69378
727.91        69.95055
728.33        70.15981
728.75        70.29526
729.17        70.34658
729.59        70.30523
730.01        70.20643
730.43        70.11668
730.85        70.05657
731.27        70.01499
731.69        69.97279
732.10        69.89377
732.52        69.76965
732.94        69.63065
733.36        69.52435
733.78         69.3898
734.20         69.2339
734.62        69.32639
735.04         69.7195
735.46        69.23449
735.88        69.92089
736.30        69.98936
736.72        70.09476
737.13         70.5121
737.55        71.05366
737.97        71.25672
738.39        71.05798
738.81        70.53023
739.23        69.92303
739.65        70.01369
740.06         70.6465
740.48         70.8754
740.90        70.62645
741.32        70.49795
741.74        70.56279
742.16        70.61937
742.57        70.68078
742.99        70.78782
743.41        70.89347
743.83        70.90273
744.25        70.80147
744.67        70.60235
745.08        70.40261
745.50        70.33726
745.92        70.44449
746.34        70.67858
746.75        70.92585
747.17        70.98988
747.59        70.83788
748.01        70.53488
748.42        70.20641
748.84        70.06041
749.26        70.14507
749.68        70.36021
750.09        70.60869
750.51        70.79866
750.93         70.8532
751.35        70.70621
751.76        70.41003
752.18        70.16376
752.60        69.99752
753.01        69.84333
753.43         69.7008
753.85        69.61288
754.27        69.58698
754.68        69.72886
755.10        69.83852
755.52        70.00041
755.93        70.12566
756.35        70.22734
756.77        70.37675
757.18        70.43497
757.60        70.47929
758.02        70.83468
758.43        71.45164
758.85        70.52876
759.26        70.59034
759.68        70.25825
760.10        70.25929
760.51        70.71185
760.93        70.93188
761.34        70.71741
761.76        70.83091
762.18        70.85351
762.59        71.08047
763.01        71.16734
763.42         71.1557
763.84        71.10062
764.26        71.01598
764.67        70.89801
765.09          70.799
765.50        70.55634
765.92        70.29774
766.33        70.35832
766.75        70.61433
767.16        70.68781
767.58        70.49534
768.00        70.25851
768.41         70.1166
768.83        70.26817
769.24         70.6441
769.66         70.8895
770.07        70.93731
770.49        70.86593
770.90        70.77391
771.32        71.00096
771.73        71.45584
772.15        71.54494
772.56        71.25546
772.97        70.90231
773.39        70.62444
773.80         70.5223
774.22        70.61793
774.63        70.93343
775.05        71.30173
775.46          71.523
775.88        71.50309
776.29        71.32306
776.70        71.08879
777.12        70.99499
777.53        71.10548
777.95        71.32712
778.36         71.5776
778.77        71.67859
779.19        71.60395
779.60        71.43124
780.02         71.2329
780.43        71.16776
780.84        71.28425
781.26        71.33086
781.67        71.34942
782.09        71.78575
782.50        72.43222
782.91        72.36674
783.33        71.65704
783.74        71.28974
784.15        71.33135
784.57        71.22173
784.98        71.03076
785.39        71.11454
785.81         71.4799
786.22        72.02533
786.63        72.58508
787.04        72.88912
787.46        72.88799
787.87         72.6385
788.28         72.2972
788.70        72.08888
789.11         72.0515
789.52        72.14992
789.93        72.29855
790.35        72.34745
790.76        72.26705
791.17        72.09796
791.58        71.92964
792.00        71.82928
792.41        71.83398
792.82         72.0552
793.23        72.36752
793.65        72.21634
794.06        71.73937
794.47         71.7953
794.88        72.31773
795.29        72.50422
795.71        72.29088
796.12        72.27472
796.53        72.47955
796.94        72.42462
797.35        72.22553
797.76         72.6125
798.18        73.40624
798.59        73.73037
799.00        73.47584
799.41        73.09755
799.82        72.75785
800.23        72.53819
800.64        72.50224
801.06        72.59534
801.47        72.75961
801.88        72.79867
802.29        72.65759
802.70        72.39204
803.11        72.08456
803.52        71.86893
803.93        71.81047
804.34        71.87999
804.75        72.02769
805.17        72.26391
805.58        72.61588
805.99        72.73632
806.40          72.703
806.81        73.42498
807.22        74.53519
807.63        74.22176
808.04         72.7375
808.45         72.0655
808.86        72.37508
809.27        72.61915
809.68        72.62779
810.09         72.6171
810.50        72.54517
810.91        72.35317
811.32        72.22075
811.73        72.43357
812.14        73.02897
812.55        73.91756
812.96        74.80727
813.37        75.14906
813.78        74.79787
814.19        73.96212
814.60        72.95808
815.01        72.21067
815.42        71.83036
815.83        71.70096
816.24        71.76155
816.65         71.8907
817.05        72.03233
817.46        72.21255
817.87        72.41013
818.28        72.52684
818.69        72.54704
819.10        72.45634
819.51        72.34797
819.92        72.41429
820.33        72.69066
820.74        73.11234
821.14        73.53562
821.55        73.72237
821.96        73.62031
822.37        73.30511
822.78        72.90437
823.19        72.63379
823.60        72.56841
824.00        72.67792
824.41        72.83919
824.82        72.95399
825.23        72.97125
825.64        72.92558
826.04        72.86727
826.45        72.82954
826.86        72.84122
827.27        72.89407
827.68        72.93294
828.08        72.89953
828.49        72.73336
828.90        72.47588
829.31        72.25368
829.72        72.27206
830.12        72.59216
830.53        73.09403
830.94        73.59156
831.35        73.71532
831.75        73.39399
832.16        72.72588
832.57        71.96623
832.97        71.49707
833.38        71.42759
833.79        71.62542
834.20        71.97768
834.60        72.30216
835.01        72.53135
835.42        72.76574
835.82        72.97754
836.23        73.02757
836.64        72.93582
837.04        72.69143
837.45        72.49493
837.86         72.7517
838.26        73.54669
838.67        74.71776
839.08        75.87507
839.48        76.27168
839.89        75.71552
840.29        74.47533
840.70        73.13833
841.11        72.36371
841.51        72.32928
841.92        72.81953
842.33         73.6035
842.73        74.26942
843.14        74.54359
843.54        74.60126
843.95        74.54732
844.35        74.60169
844.76        74.80457
845.17        75.07488
845.57        75.29709
845.98        75.27412
846.38        74.99309
846.79        74.51146
847.19        74.02525
847.60        73.81362
848.00        73.94767
848.41        74.32114
848.81        74.74433
849.22        74.81012
849.62        74.47038
850.03        73.84064
850.43        73.16457
850.84        72.76022
851.24        72.77342
851.65        73.04002
852.05        73.53117
852.46        74.05824
852.86        74.51554
853.27        74.93732
853.67         75.1845
854.07        75.19209
854.48        74.93909
854.88        74.46806
855.29        73.84633
855.69        73.36543
856.10        73.05676
856.50        72.95086
856.90        72.96071
857.31        72.94025
857.71        72.89697
858.12         72.8072
858.52        72.74432
858.92        72.70705
859.33        72.67769
859.73        72.68331
860.13        72.64764
860.54        72.48074
860.94        72.21903
861.34         71.8844
861.75        71.57105
862.15        71.47657
862.55        71.61705
862.96         71.8898
863.36        72.24164
863.76        72.48786
864.17         72.5476
864.57        72.50434
864.97        72.30369
865.38        71.87171
865.78        71.26218
866.18        70.50359
866.58        69.80579
866.99        69.54084
867.39        69.82209
867.79        70.52451
868.19        71.41268
868.60         72.0973
869.00        72.49225
869.40        72.66013
869.80        72.67036
870.21        72.66857
870.61        72.76997
871.01        72.86391
871.41        72.86967
871.81        72.68513
872.22        72.29684
872.62        71.75632
873.02        71.22165
873.42        70.93971
873.82        70.97218
874.22        71.24401
874.63        71.55942
875.03        71.62318
875.43        71.35178
875.83        70.84609
876.23        70.28539
876.63        69.94167
877.03        69.89765
877.44        70.06044
877.84        70.33521
878.24        70.56511
878.64        70.64792
879.04        70.49194
879.44        70.28639
879.84        70.41381
880.24        70.89345
880.64        71.56748
881.04        72.09548
881.44        71.95085
881.84        71.05344
882.24        69.61958
882.65        68.12386
883.05        67.28929
883.45          67.305
883.85        67.97245
884.25        68.95998
884.65         69.6836
885.05        69.93983
885.45        69.89039
885.85        69.70309
886.25        69.63935
886.65        69.77409
887.05        69.99345
887.45        70.20829
887.85        70.29959
888.25        70.23399
888.65        70.07835
889.04        69.89513
889.44        69.79506
889.84        69.78929
890.24        69.83143
890.64        69.89027
891.04        69.91769
891.44        69.90132
891.84          69.885
892.24        69.84282
892.64        69.72429
893.04        69.54864
893.44        69.34061
893.83        69.24601
894.23        69.45043
894.63        69.99245
895.03        70.77209
895.43        71.60664
895.83        72.20126
896.23        72.44699
896.63        72.40269
897.02        72.11577
897.42        71.70875
897.82        71.25287
898.22         70.7569
898.62         70.2759
899.01        69.87531
899.41        69.59916
899.81        69.44042
900.21        69.41166
900.61        69.51402
901.00        69.72046
901.40        69.99893
901.80        70.26881
902.20        70.40247
902.59        70.38474
902.99        70.25331
903.39        70.05597
903.79        69.87794
904.18        69.74423
904.58        69.62086
904.98        69.59395
905.38        69.80077
905.77        70.24615
906.17        70.92452
906.57        71.56119
906.96        71.69764
907.36        71.23535
907.76         70.3137
908.15         69.3998
908.55        69.22091
908.95        69.93034
909.34        71.31161
909.74        72.78769
910.14        73.48594
910.53        73.14553
910.93        72.07239
911.33         70.6935
911.72        69.65629
912.12        69.22847
912.52        69.22049
912.91        69.44254
913.31        69.63412
913.70        69.71285
914.10        69.74296
914.49        69.89734
914.89        70.34944
915.29        71.13035
915.68        72.13634
916.08        73.01187
916.47        73.27673
916.87        72.84662
917.26        71.86421
917.66        70.78666
918.05        70.13974
918.45        70.06499
918.84        70.48056
919.24        71.05561
919.64        71.34451
920.03        71.22599
920.42        70.79146
920.82        70.39714
921.21        70.53397
921.61        71.27116
922.00        72.48584
922.40        73.68616
922.79        74.17122
923.19        73.73809
923.58        72.67094
923.98        71.48927
924.37           70.88
924.77        71.01949
925.16        71.64222
925.55        72.48602
925.95         73.0704
926.34        73.23216
926.74        73.11338
927.13        72.73922
927.52        72.07472
927.92        71.24059
928.31         70.2464
928.70        69.35284
929.10        68.93772
929.49        69.05689
929.89        69.56419
930.28        70.34637
930.67        71.05647
931.07        71.51637
931.46        71.87177
931.85           71.98
932.24        71.68506
932.64        71.05906
933.03        70.12816
933.42        69.29058
933.82        69.12189
934.21        69.72527
934.60        70.99251
934.99        72.49618
935.39        73.43725
935.78        73.60902
936.17        73.11273
936.56        72.34372
936.96        71.94062
937.35        72.05864
937.74        72.50236
938.13        72.88132
938.53        72.61501
938.92        71.62388
939.31        70.19358
939.70        68.77023
940.09        67.95927
940.49        67.86423
940.88        68.31882
941.27        69.08392
941.66        69.70753
942.05        70.02186
942.44        70.19358
942.84        70.27328
943.23        70.33018
943.62        70.41631
944.01        70.42451
944.40        70.51623
944.79         71.0048
945.18        71.88826
945.57        73.05286
945.97        74.03068
946.36        74.12523
946.75        73.16798
947.14         71.4982
947.53        69.62552
947.92        68.26155
948.31        67.61684
948.70        67.50849
949.09        67.84885
949.48        68.46852
949.87        69.23881
950.26        70.18252
950.65        71.13732
951.04        71.82416
951.43        72.14963
951.82        72.12727
952.21        71.83674
952.60        71.46645
952.99        71.12428
953.38        70.81671
953.77         70.6069
954.16        70.58179
954.55        70.74057
954.94        71.03285
955.33        71.43736
955.72        71.88703
956.11        72.31499
956.50        72.73799
956.89        72.91808
957.28        72.48742
957.66        71.43238
958.05        69.95335
958.44        68.54631
958.83        67.91963
959.22        68.18903
959.61        69.15604
960.00         70.3899
960.39        71.06487
960.78        70.90649
961.16        70.16108
961.55        69.21531
961.94        68.54823
962.33        68.31736
962.72        68.39902
963.11        68.68736
963.49        69.03307
963.88         69.2633
964.27        69.40786
964.66        69.60901
965.04        70.10813
965.43        70.87182
965.82        71.87273
966.21        72.63471
966.60        72.30347
966.98        70.74209
967.37         68.3986
967.76        66.14374
968.15        65.04867
968.53        65.29231
968.92        66.61138
969.31        68.41154
969.69        69.47045
970.08        69.27324
970.47        68.20548
970.86        66.97695
971.24        66.60278
971.63        67.30567
972.02        68.78374
972.40        70.49318
972.79        71.11277
973.17        70.34158
973.56        68.69167
973.95        66.92758
974.33        66.01026
974.72        66.14719
975.11        67.00649
975.49         68.2774
975.88        69.26715
976.26        69.73627
976.65         69.8555
977.04         69.7083
977.42        69.39043
977.81        68.94548
978.19         68.2795
978.58        67.70247
978.96        67.71147
979.35        68.35636
979.74        69.56557
980.12        70.89761
980.51        71.28806
980.89          70.631
981.28        69.25139
981.66        67.80214
982.05         67.1991
982.43        67.65719
982.82        68.86742
983.20        70.59729
983.59        72.25938
983.97         73.6285
984.35        74.79455
984.74        75.50053
985.12        75.59658
985.51         75.0379
985.89        73.88901
986.28        72.61517
986.66        71.86533
987.04        71.84825
987.43        72.37478
987.81        73.17036
988.20        73.51291
988.58        73.20036
988.96        72.39168
989.35        71.34482
989.73         70.3909
990.12        69.62983
990.50        69.01925
990.88        68.45566
991.27        67.82142
991.65        67.15047
992.03        66.52608
992.42        66.23789
992.80        66.63125
993.18        67.76907
993.56        69.55376
993.95        71.45645
994.33         72.6609
994.71        72.75076
995.10        72.03115
995.48        71.01357
995.86        70.61044
996.24        71.01192
996.63         71.7411
997.01        72.68569
997.39        73.21672
997.77        73.06325
998.15        72.66433
998.54        71.74488
998.92        69.70312
999.30          66.767
999.68        63.18744
1000.06        60.30275
1000.45        60.03071
1000.83        62.77876
1001.21        68.20411
1001.59        74.73553
1001.97         78.5289
1002.35        78.06667
1002.73         74.4948
1003.12        69.99092
1003.50        67.40195
1003.88        67.49738
1004.26         69.2912
1004.64        72.17596
1005.02         74.8078
1005.40        76.38748
1005.78        77.54433
1006.16        77.71089
1006.54        75.91646
1006.92        72.40312
1007.30        67.57539
1007.69        63.19856
1008.07         61.7005
1008.45        63.73873
1008.83        68.87775
1009.21        75.70047
1009.59         80.4397
1009.97        81.15192
1010.35        78.73975
1010.73          74.612
1011.11        70.93774
1011.49        68.50602
1011.86        66.76281
1012.24        65.61278
1012.62        64.89339
1013.00        64.46281
1013.38        64.42699
1013.76        64.85823
1014.14        65.66679
1014.52        66.67712
1014.90        67.76572
1015.28        68.39539
1015.66         67.9448
1016.04        66.38703
1016.41        63.86901
1016.79        61.17714
1017.17        59.88112
1017.55        60.38338
1017.93        62.17651
1018.31        64.29353
1018.69        65.33535
1019.06        64.97418
1019.44        63.54818
1019.82        61.50474
1020.20        60.02147
1020.58        59.66908
1020.95        59.95093
1021.33         60.6578
1021.71        61.44771
1022.09        62.29987
1022.46        63.67462
1022.84        65.20573
1023.22        65.91193
1023.60        65.47895
1023.97        63.86138
1024.35        62.79737
1024.73        64.49282
