SpectraSmart Spectrum 2.9.0.0
--------- Device Information -----------
Spectrum Name :  反射率_0
Saving Time :  2024/04/26 23:17:12
Spectro-Module Model Name : SE2030-DUVN
Spectro-Module Serial Number : OS361AC55029948
Wavelength Start : 200
Wavelength End : 1025
Wavelength Unit : Wavelength(nm)
Spectrum Unit : Reflectance(%)
-----------Spectrum Setting ------------
Integration Time : 20ms
Average : 10
Boxcar : 0
Background removal :  enabled
linearity correction :  enabled
SC :  disabled
Intensity correction :  disabled
DWT denoise :  enabled
savitzky-golay :  disabled
FFT :  disabled
Running average :  disabled
Kalman :  disabled
High pass :  disabled
---------------BEGIN--------------------
Wavelength(nm)             Reflectance(%)
200.29               0
200.75        38.87097
201.21        40.92134
201.67        43.48293
202.13        46.33282
202.58         49.5794
203.04        53.98456
203.50        59.42659
203.96        63.99821
204.42        66.01988
204.88        65.19907
205.34        62.25048
205.80        59.70859
206.26         58.5584
206.72        57.97106
207.18        57.84119
207.64        57.98187
208.10        58.26558
208.55        59.43351
209.01         60.1374
209.47        57.66542
209.93        52.78836
210.39        48.31338
210.85        45.78706
211.31        45.61808
211.77        47.92404
212.23        54.59396
212.69        73.76929
213.14         114.715
213.60        126.6571
214.06        108.3384
214.52        91.84653
214.98        82.43997
215.44        76.15836
215.90        69.84985
216.36        63.88657
216.81        59.32266
217.27        56.86113
217.73        57.38926
218.19        60.62996
218.65        63.11535
219.11        62.99693
219.57        61.12293
220.02        61.25662
220.48        67.40311
220.94        80.30775
221.40        102.2205
221.86        130.7548
222.32        142.5959
222.77        122.9257
223.23        89.98705
223.69        62.27768
224.15        48.98499
224.61        46.44183
225.06        48.85366
225.52        52.85196
225.98        55.09175
226.44        55.12106
226.90        54.27841
227.36        52.67178
227.81        50.41564
228.27         47.9964
228.73        45.17015
229.19        42.81714
229.65        42.00304
230.10         42.6121
230.56        44.39886
231.02        46.10744
231.48        45.71738
231.93        43.07744
232.39        39.33725
232.85        35.98021
233.31        34.93642
233.77        36.34131
234.22        39.48114
234.68        43.21735
235.14        45.88732
235.60        46.95026
236.05        46.85481
236.51        46.10065
236.97         45.7487
237.43        46.29631
237.88        47.50628
238.34        49.01179
238.80        50.51725
239.26        52.05544
239.71        54.21553
240.17        57.41435
240.63        62.64648
241.08         70.3392
241.54        79.68752
242.00        90.20785
242.46        102.1243
242.91        117.1483
243.37          136.34
243.83        160.2661
244.28        180.4872
244.74        181.7788
245.20        163.0104
245.66        137.6378
246.11        116.9784
246.57        101.9943
247.03        90.09977
247.48        80.14254
247.94        72.16957
248.40        67.33425
248.85        65.22619
249.31        64.92166
249.77        65.06181
250.22        65.22736
250.68        65.45113
251.14        65.98826
251.59        67.40723
252.05        69.79798
252.51        72.70241
252.96        74.51868
253.42        74.55502
253.88        73.09264
254.33        70.34727
254.79        68.67449
255.25        69.66695
255.70        72.88699
256.16        77.61595
256.62        81.12392
257.07        79.57368
257.53        74.61232
257.99        68.85955
258.44        64.19344
258.90        62.44894
259.35        62.56786
259.81         63.8517
260.27        65.14999
260.72        65.17858
261.18        64.09218
261.63        62.17036
262.09        60.34264
262.55        59.04114
263.00        58.16901
263.46        57.67329
263.91        56.96128
264.37        55.63113
264.83        53.70674
265.28        51.43865
265.74        49.50424
266.19        48.43381
266.65        48.30311
267.11        48.75432
267.56        49.32717
268.02        49.29868
268.47        48.48246
268.93        47.16497
269.38        45.57646
269.84        44.13072
270.30        42.95438
270.75        41.90603
271.21        41.05127
271.66        40.43373
272.12        40.02932
272.57        39.82095
273.03         39.6124
273.48        39.05761
273.94         38.1544
274.39        36.97748
274.85        35.82288
275.31        34.97669
275.76        34.45811
276.22        34.18329
276.67         33.9618
277.13        33.61332
277.58        33.04585
278.04        32.37024
278.49        31.61008
278.95        30.90927
279.40         30.2657
279.86         29.7136
280.31        29.19181
280.77        28.72097
281.22        28.25937
281.68        27.85525
282.13        27.51429
282.59        27.32122
283.04        27.24422
283.50        27.27942
283.95        27.32153
284.41        27.21931
284.86        26.95345
285.32        26.60506
285.77        26.29438
286.22        26.25356
286.68        26.50625
287.13         26.9252
287.59        27.38636
288.04        27.65421
288.50        27.68962
288.95        27.54354
289.41        27.29807
289.86        27.00562
290.32        26.74667
290.77        26.50873
291.22        26.35497
291.68        26.36337
292.13        26.54706
292.59        26.91979
293.04        27.46603
293.50        28.16536
293.95        28.98948
294.40        29.93999
294.86        30.98812
295.31        32.08191
295.77        33.21605
296.22        34.38339
296.68        35.61448
297.13        36.94988
297.58        38.40535
298.04        39.96415
298.49        41.60321
298.95        43.30222
299.40        45.03299
299.85        46.80535
300.31        48.59768
300.76        50.35719
301.21         52.0874
301.67        53.81295
302.12        55.54972
302.58        57.41243
303.03        59.36234
303.48        61.37847
303.94        63.41498
304.39        65.33849
304.84        67.15456
305.30        68.92268
305.75        70.63562
306.20        72.36938
306.66        74.16013
307.11        75.94983
307.57        77.75507
308.02        79.49809
308.47        81.17915
308.93        82.80413
309.38        84.37048
309.83         85.9909
310.29        87.67838
310.74        89.39518
311.19        90.99212
311.65        92.20322
312.10        92.96257
312.55        93.34808
313.00        93.62347
313.46        94.20134
313.91        95.14822
314.36        96.38244
314.82        97.64034
315.27        98.49784
315.72        98.83886
316.18        98.83502
316.63         98.7196
317.08         98.9042
317.53        99.48994
317.99        100.3242
318.44        101.2447
318.89         101.958
319.35        102.3669
319.80        102.5782
320.25        102.6659
320.70        102.7463
321.16        102.8703
321.61        103.0325
322.06        103.2389
322.51        103.5189
322.97        103.8521
323.42        104.2335
323.87        104.6601
324.32         105.142
324.78        105.6254
325.23         106.174
325.68        106.5997
326.13        106.6223
326.59        106.2127
327.04        105.4981
327.49        104.7915
327.94         104.616
328.39        105.0899
328.85        106.0352
329.30        107.2568
329.75        108.1308
330.20        108.4484
330.66        108.3474
331.11        108.0967
331.56        108.0688
332.01        108.3863
332.46        108.8933
332.92        109.4297
333.37        109.9007
333.82        110.1901
334.27        110.4119
334.72        110.5611
335.17        110.5979
335.63        110.5484
336.08        110.4827
336.53        110.5763
336.98        111.1686
337.43        112.3076
337.88        113.8559
338.34        115.5182
338.79        116.9081
339.24        117.8054
339.69        118.3042
340.14        118.4451
340.59        118.3328
341.05        118.0937
341.50        117.7211
341.95         117.406
342.40        117.4394
342.85        117.8841
343.30        118.6749
343.75        119.6632
344.20         120.566
344.66        121.2772
345.11        121.8537
345.56        122.2827
346.01        122.5676
346.46        122.7443
346.91        122.8093
347.36        122.8631
347.81        123.0872
348.26        123.4989
348.72        124.0258
349.17        124.5677
349.62        124.9933
350.07        125.2539
350.52        125.4233
350.97        125.4083
351.42        125.0693
351.87        124.4345
352.32        123.5543
352.77        122.7599
353.22         122.536
353.67        122.9452
354.13        123.8447
354.58         124.815
355.03        125.1008
355.48        124.5243
355.93         123.315
356.38        121.9624
356.83        121.2118
357.28        121.2122
357.73        121.7031
358.18        122.2702
358.63        122.2498
359.08         121.468
359.53        120.1667
359.98        118.6569
360.43        117.3756
360.88        116.4464
361.33        115.7371
361.78        115.1014
362.23        114.3249
362.68        113.3645
363.13        112.3226
363.58        111.3261
364.03        110.5411
364.48        109.9889
364.93         109.585
365.38        109.2025
365.83        108.6582
366.28        107.9039
366.73        107.0011
367.18        106.0339
367.63        105.1289
368.08         104.328
368.53        103.6023
368.98        102.9184
369.43        102.2195
369.88        101.4923
370.33        100.7629
370.78        100.0666
371.23        99.46238
371.68        98.95804
372.13        98.51406
372.58        98.08765
373.03        97.61405
373.48        97.06172
373.93        96.44287
374.38        95.74196
374.83        94.94626
375.28        94.07365
375.72        93.12152
376.17        92.21174
376.62        91.41045
377.07         90.7506
377.52        90.24484
377.97        89.83527
378.42        89.43366
378.87        89.01569
379.32        88.56428
379.77        88.20007
380.22        88.10348
380.67        88.26733
381.11        88.65646
381.56        88.91125
382.01        88.53646
382.46        87.48177
382.91        85.98071
383.36        84.49876
383.81        83.67164
384.26        83.59665
384.71         84.0558
385.15         84.7309
385.60        85.06351
386.05        84.87897
386.50        84.34449
386.95        83.60285
387.40        82.88161
387.85        82.27724
388.29        81.67171
388.74        81.17259
389.19        80.72405
389.64        80.31407
390.09        79.96563
390.54        79.66721
390.98        79.36916
391.43         79.0959
391.88         78.8292
392.33        78.58548
392.78        78.34228
393.23        78.08699
393.67         77.9278
394.12        77.86655
394.57        77.42888
395.02        76.75993
395.47        76.60897
395.91        76.91841
396.36        76.89551
396.81        76.51985
397.26        76.24308
397.71        76.07996
398.15        75.84701
398.60        75.63796
399.05        75.37125
399.50        75.08634
399.95        75.02372
400.39        75.12623
400.84         74.8828
401.29        74.34369
401.74        74.09818
402.18        74.11277
402.63        73.75965
403.08        73.15187
403.53        72.87511
403.97        72.95644
404.42        73.11949
404.87        73.24319
405.32        73.21719
405.76        72.98805
406.21        72.66718
406.66        72.33161
407.11        72.02171
407.55        71.84718
408.00        71.93142
408.45        72.19251
408.90        72.33481
409.34        72.22983
409.79        71.83328
410.24        71.29328
410.68        70.95107
411.13         70.8641
411.58        70.85365
412.03        70.82693
412.47        70.71259
412.92        70.46627
413.37        70.15147
413.81        69.86089
414.26        69.79344
414.71        69.95031
415.15        70.29324
415.60        70.68575
416.05        70.96873
416.49        71.08278
416.94        71.06013
417.39        70.96249
417.83        70.87376
418.28        70.83308
418.73        70.81697
419.17        70.82115
419.62        70.84297
420.07        70.86221
420.51        70.86009
420.96         70.8726
421.41        70.83156
421.85         70.7028
422.30        70.74691
422.74        70.82975
423.19        70.47601
423.64        69.83836
424.08         69.8417
424.53        70.44176
424.98        70.77804
425.42        70.78511
425.87        71.03204
426.31        71.43243
426.76        71.31204
427.21        70.78973
427.65        70.59308
428.10        70.69885
428.54        70.70087
428.99        70.64642
429.44         70.3588
429.88        70.07994
430.33        70.84643
430.77        72.18648
431.22        72.57586
431.66        72.17536
432.11        71.26436
432.56        70.38019
433.00        70.23433
433.45        70.97248
433.89         72.0574
434.34        72.68537
434.78        73.12266
435.23        72.24333
435.67        70.01363
436.12        70.68723
436.57         70.8443
437.01        71.46555
437.46        71.74384
437.90        71.69479
438.35        70.74907
438.79        71.07848
439.24          71.017
439.68        71.15541
440.13        71.58079
440.57         72.2055
441.02        72.35545
441.46        72.07118
441.91        72.54512
442.35        73.41617
442.80        73.18916
443.24         72.1083
443.69        72.07182
444.13        72.99722
444.58        73.38271
445.02        73.17498
445.47        73.22163
445.91        73.56335
446.36        73.81876
446.80        73.94287
447.24        74.18965
447.69         74.5844
448.13        74.22511
448.58        74.59714
449.02        74.50577
449.47         74.4089
449.91        74.27419
450.36        74.14932
450.80        74.00364
451.25        73.88785
451.69        73.85327
452.13        73.91913
452.58        74.06278
453.02        74.22559
453.47        74.32078
453.91        74.30905
454.36        74.21127
454.80        74.04987
455.24        73.81126
455.69        73.50322
456.13        73.27957
456.58        73.18117
457.02        72.65295
457.46        71.86958
457.91        72.27526
458.35        72.51299
458.79        72.47487
459.24        71.83832
459.68        71.09025
460.13        70.49384
460.57        70.28704
461.01        70.47449
461.46        70.85295
461.90        71.16751
462.34        72.05181
462.79         71.6793
463.23        71.66221
463.68        71.50985
464.12        71.28352
464.56         70.9403
465.01        70.46753
465.45        69.95632
465.89        69.58942
466.34        69.34241
466.78        69.76048
467.22        70.06656
467.67        69.50225
468.11        69.30441
468.55        69.27659
468.99        69.71762
469.44        69.71828
469.88        69.26756
470.32        68.84602
470.77        68.54861
471.21        68.34542
471.65        68.25504
472.10        68.28088
472.54        68.37372
472.98        68.41975
473.42        68.37132
473.87        68.41856
474.31        68.45818
474.75        68.03893
475.20        67.35377
475.64        67.23739
476.08        67.66233
476.52        67.65348
476.97        67.13418
477.41        67.13729
477.85        67.44498
478.29        66.60828
478.74        67.50373
479.18        67.60454
479.62        67.55276
480.06        67.53725
480.50        67.44579
480.95        67.52316
481.39         67.8084
481.83        66.97576
482.27        67.11628
482.72        67.59792
483.16        67.13025
483.60        67.18476
484.04        67.20564
484.48        67.33302
484.93        67.34077
485.37        67.26881
485.81        66.75637
486.25        66.63919
486.69        68.42048
487.14        69.69562
487.58         67.4102
488.02        67.21158
488.46        66.22609
488.90        66.51183
489.34        67.27719
489.79        67.58931
490.23        67.33789
490.67        66.70485
491.11        66.01421
491.55        65.87258
491.99        66.22279
492.43         66.2203
492.88        65.85175
493.32        65.75781
493.76        65.95583
494.20         66.1039
494.64        66.16692
495.08        66.27751
495.52        66.39826
495.96        66.35056
496.41        66.16972
496.85        66.16415
497.29        66.19218
497.73        66.15171
498.17        65.28595
498.61        65.09695
499.05        65.34418
499.49        65.56261
499.93        65.45535
500.37        65.59518
500.82         65.8804
501.26        65.93194
501.70        65.68245
502.14        65.98658
502.58        65.55114
503.02        65.59848
503.46        65.74532
503.90        65.98865
504.34        66.20998
504.78        66.24584
505.22        66.07446
505.66        65.72799
506.10        65.33134
506.54        65.10617
506.98        65.07051
507.42        65.09119
507.86        65.15179
508.30        65.08682
508.74        65.27494
509.18        65.33625
509.62        65.37232
510.06        65.37738
510.50        65.35036
510.94         65.2779
511.38        65.18046
511.82        65.10887
512.26        65.07715
512.70        65.08121
513.14        65.10473
513.58        65.11586
514.02        65.10777
514.46        65.08988
514.90        65.08294
515.34        65.11958
515.78        65.20019
516.22        65.30423
516.66        65.39803
517.10        65.43062
517.54        65.39104
517.98        65.30117
518.42        65.18099
518.86        65.06306
519.30        64.96413
519.74        64.87672
520.18        64.81973
520.62        64.81949
521.06         64.8776
521.50        64.99234
521.93        65.12429
522.37        65.18539
522.81        65.16559
523.25        65.08061
523.69        64.98586
524.13        64.97446
524.57        65.05616
525.01        65.18661
525.45        65.30435
525.89        65.31071
526.32        65.17941
526.76        64.97713
527.20        64.72714
527.64        64.47602
528.08        64.25535
528.52        64.03389
528.96        63.87848
529.40        63.93851
529.83        64.19029
530.27        64.49889
530.71        64.75603
531.15        64.88723
531.59        64.85498
532.03        64.64194
532.46        64.33824
532.90        64.17432
533.34        64.17262
533.78        64.24517
534.22        64.31749
534.66        64.36069
535.09        64.30357
535.53        64.04232
535.97        63.66151
536.41        63.45323
536.85        63.45608
537.28        63.52566
537.72        63.63203
538.16        63.77791
538.60         63.9349
539.04        64.09877
539.47         64.2224
539.91        64.27477
540.35        64.23855
540.79        64.12808
541.22        63.98425
541.66        63.89801
542.10        63.88477
542.54        63.92179
542.97        63.97202
543.41        64.00539
543.85        63.99973
544.29        63.97518
544.72        63.92859
545.16        63.89244
545.60        63.86724
546.04        63.85433
546.47        63.86475
546.91        63.93662
547.35        64.06885
547.79        64.17404
548.22        64.24062
548.66        64.40825
549.10        64.65118
549.53         64.5555
549.97        64.19437
550.41        63.89569
550.84        63.77219
551.28        63.75849
551.72        63.77733
552.15        63.85008
552.59        64.03323
553.03        63.42263
553.46        63.94742
553.90        63.85544
554.34        63.79786
554.77        63.87896
555.21        63.81578
555.65        63.91402
556.08        64.02002
556.52        64.16058
556.96        64.26202
557.39        64.19365
557.83        63.94324
558.27        63.83121
558.70        63.29218
559.14        63.17173
559.57        63.26469
560.01        63.34405
560.45        63.38869
560.88        63.59507
561.32         63.9221
561.75        64.07267
562.19        64.05328
562.63        63.97144
563.06        63.87329
563.50        63.84534
563.93        63.83644
564.37         63.8368
564.80        63.86027
565.24        63.77871
565.68        63.46609
566.11        64.10741
566.55        63.40486
566.98        63.22746
567.42        63.07096
567.85        63.15141
568.29        63.67643
568.72        64.07371
569.16        64.44547
569.60        64.62918
570.03        64.78751
570.47        65.01296
570.90        65.42812
571.34        64.53702
571.77        64.67657
572.21        65.28745
572.64        65.18016
573.08        65.50948
573.51         64.5617
573.95        64.47575
574.38        65.09665
574.82        65.10358
575.25        65.03018
575.69        65.37159
576.12        65.28945
576.56        64.51449
576.99        64.39289
577.42        64.85083
577.86        64.93995
578.29         65.8841
578.73        65.95933
579.16        65.85682
579.60        65.13927
580.03        64.61618
580.47        64.68385
580.90        65.58496
581.33        65.53718
581.77        65.48385
582.20        65.50894
582.64        66.37321
583.07         65.8144
583.51        65.40703
583.94        64.73056
584.37        64.57472
584.81        65.07508
585.24          65.196
585.68        64.86812
586.11        65.29678
586.54        65.47442
586.98        64.79843
587.41        63.86633
587.85        64.44216
588.28        64.88508
588.71        64.66118
589.15        64.10702
589.58        64.44789
590.01        63.93137
590.45        63.64104
590.88        64.75136
591.31        64.63203
591.75        63.89693
592.18        63.60486
592.61        64.02005
593.05         64.0751
593.48        64.91147
593.91        65.01978
594.35         64.7075
594.78        63.86196
595.21        63.41341
595.65        63.78268
596.08        65.14568
596.51        64.79013
596.94        64.15031
597.38        63.74353
597.81        64.02271
598.24        64.58688
598.68        64.27011
599.11        64.13326
599.54        65.34843
599.97        64.92733
600.41        64.62693
600.84        63.93423
601.27        64.37811
601.70         64.3198
602.14        64.37656
602.57        64.09383
603.00        63.82803
603.43        63.38057
603.87         64.4616
604.30        64.68979
604.73        64.61698
605.16         63.9087
605.60        63.83719
606.03        63.45698
606.46         63.2723
606.89        63.37729
607.32        64.19334
607.76        63.54781
608.19        63.96045
608.62        63.83027
609.05        63.49868
609.48        63.44486
609.92        64.38611
610.35        63.92961
610.78        63.30038
611.21        63.61475
611.64        63.50585
612.07        63.83889
612.50        63.74963
612.94        63.72771
613.37        63.60505
613.80        63.51701
614.23        62.99035
614.66        62.66867
615.09         63.3427
615.52        63.47329
615.96        63.24503
616.39        63.47569
616.82        63.48535
617.25        63.15918
617.68        62.91084
618.11        63.00557
618.54        63.48949
618.97        63.49679
619.40         63.0467
619.84         63.0215
620.27         62.8774
620.70        63.08101
621.13        63.22188
621.56        62.76099
621.99        62.14434
622.42        61.87415
622.85        62.29621
623.28        61.62263
623.71        62.08228
624.14        62.61856
624.57        62.74633
625.00        62.37578
625.43        62.79291
625.86        62.73526
626.29        62.75003
626.72        62.10762
627.15        62.55034
627.58        62.47728
628.01        62.26813
628.44        62.61016
628.87        62.40964
629.30        62.00458
629.73        62.06951
630.16        62.15351
630.59        62.09919
631.02        62.27058
631.45        62.52039
631.88        62.62561
632.31        62.51045
632.74         62.8109
633.17        62.49846
633.60        62.40689
634.03         62.2472
634.46        62.04727
634.89        61.83321
635.32        61.68409
635.75        61.63074
636.18        61.57924
636.61        61.54823
637.04         61.5997
637.47         61.7239
637.89        61.89454
638.32        62.03081
638.75        62.05313
639.18         61.9429
639.61        61.76128
640.04        61.52566
640.47        61.40657
640.90        61.41791
641.33        61.53999
641.76        61.71902
642.18        61.81868
642.61        61.87041
643.04        61.83604
643.47        61.77705
643.90        61.75033
644.33        61.76928
644.76        61.81392
645.18        61.83738
645.61        61.75364
646.04        61.56035
646.47        61.29641
646.90        61.04615
647.33        60.92791
647.75         60.9463
648.18        61.12812
648.61        61.42494
649.04        61.51707
649.47        61.32148
649.89         61.8507
650.32        61.48299
650.75        61.49498
651.18        61.45937
651.61         61.5153
652.03        61.67777
652.46        61.86775
652.89         61.9921
653.32        61.94427
653.74        61.95367
654.17        61.28749
654.60        61.86173
655.03        61.98503
655.46        61.17754
655.88        61.16259
656.31        64.05137
656.74         67.8319
657.16        68.36379
657.59        68.84483
658.02        63.88459
658.45        63.08717
658.87        61.86011
659.30        62.08517
659.73        61.48674
660.15        62.52678
660.58        61.63114
661.01        61.63903
661.44        61.63269
661.86        61.41975
662.29          60.995
662.72        61.32889
663.14        61.23285
663.57        61.19087
664.00        60.95524
664.42         61.0217
664.85        61.39782
665.27        61.81205
665.70        62.10573
666.13        62.20652
666.55        62.08384
666.98        61.69362
667.41        61.15073
667.83        61.05012
668.26        60.81148
668.69        60.88611
669.11        61.04958
669.54         61.2149
669.96        61.34485
670.39          61.543
670.82        61.76599
671.24        61.73359
671.67        61.52534
672.09        61.53053
672.52        61.74832
672.94        61.86762
673.37        61.84814
673.80        61.73681
674.22        61.58877
674.65        61.50853
675.07        61.52977
675.50        61.55713
675.92        61.56251
676.35        61.53689
676.77        61.47363
677.20        61.37164
677.62        61.27099
678.05        61.23711
678.47        61.28031
678.90        61.38491
679.32        61.50125
679.75        61.56298
680.17        61.54701
680.60        61.47483
681.02        61.39207
681.45        61.35832
681.87         61.4011
682.30        61.51654
682.72        61.66764
683.15        61.70417
683.57        61.64487
684.00        61.61676
684.42        61.66612
684.85        61.77765
685.27        61.95573
685.70        62.20243
686.12        62.41834
686.54        62.53978
686.97        62.56619
687.39        62.13377
687.82        62.04961
688.24        61.83759
688.66         61.6747
689.09        61.59722
689.51        61.59116
689.94        61.62296
690.36         61.6781
690.78        61.75424
691.21        61.83932
691.63        61.91723
692.06        61.97198
692.48        61.97793
692.90        61.92258
693.33        61.82559
693.75        61.69648
694.17        61.50431
694.60        61.31508
695.02        61.26401
695.44        61.34903
695.87        61.50445
696.29        61.67696
696.71         61.6711
697.14        61.53508
697.56         61.5617
697.98        61.75408
698.41         61.8662
698.83        61.87902
699.25        61.97733
699.68        62.08495
700.10        62.05378
700.52        61.85443
700.94        61.55112
701.37        61.25833
701.79        61.16357
702.21        61.29985
702.64        61.59632
703.06        61.94996
703.48        62.17203
703.90        62.20555
704.33        62.10571
704.75        61.93224
705.17        61.77642
705.59        61.68203
706.01         61.6217
706.44        61.60173
706.86        61.66616
707.28        61.80464
707.70        61.96975
708.12        62.14183
708.55        62.36782
708.97        62.58634
709.39        62.57348
709.81        62.37593
710.23        62.30567
710.66        62.39374
711.08        62.48744
711.50        62.52787
711.92         62.5095
712.34        62.42398
712.76        62.29063
713.19        62.13653
713.61        62.04094
714.03        62.01397
714.45        62.04115
714.87        62.12484
715.29        62.26717
715.71        62.45449
716.13        62.67514
716.56        62.86961
716.98        63.02224
717.40        63.08283
717.82         63.0585
718.24        62.96516
718.66        62.83343
719.08        62.69119
719.50        62.55398
719.92        62.43913
720.34        62.36685
720.76        62.34106
721.19        62.33348
721.61        62.39052
722.03        62.53948
722.45        62.76522
722.87         63.0463
723.29        63.27101
723.71        63.26073
724.13        62.99209
724.55        62.53358
724.97        62.03812
725.39        61.75874
725.81         61.7634
726.23        61.96247
726.65        62.24667
727.07        62.59612
727.49        62.72552
727.91        62.85814
728.33        62.94675
728.75        63.03192
729.17        63.12194
729.59        63.18102
730.01        63.19279
730.43        63.19776
730.85        63.20979
731.27        63.12956
731.69        62.92465
732.10        63.10862
732.52        62.76478
732.94        62.64897
733.36        62.55448
733.78        62.45733
734.20        62.34325
734.62        62.54371
735.04        63.06676
735.46        62.50027
735.88        62.78256
736.30        62.94685
736.72        63.48238
737.13        63.75605
737.55         63.6738
737.97        63.67405
738.39        63.72518
738.81        63.43707
739.23         62.9374
739.65        62.86644
740.06        63.17314
740.48        63.33318
740.90        63.29847
741.32         63.3816
741.74        63.58025
742.16        63.71961
742.57         63.7816
742.99        63.79641
743.41        63.74627
743.83        63.59142
744.25        63.34128
744.67        63.00272
745.08         62.6916
745.50         62.5728
745.92        62.68878
746.34        62.99194
746.75        63.33949
747.17        63.48267
747.59        63.36932
748.01        63.07086
748.42         62.7293
748.84        62.57573
749.26         62.6662
749.68        62.91859
750.09        63.21616
750.51        63.38187
750.93         63.3627
751.35        63.22412
751.76        63.02389
752.18        62.86158
752.60        62.76472
753.01        62.71494
753.43        62.68114
753.85        62.64737
754.27        62.61185
754.68        62.59607
755.10         62.6125
755.52        62.67045
755.93        62.75975
756.35        62.86375
756.77        63.01187
757.18        63.12324
757.60        63.19372
758.02        63.43624
758.43         63.8032
758.85        63.18509
759.26        63.78126
759.68        62.92267
760.10        62.69145
760.51        63.01347
760.93        63.47144
761.34        63.28004
761.76        63.54769
762.18        63.51427
762.59        63.62024
763.01         63.6734
763.42        63.74318
763.84        63.78276
764.26        63.79395
764.67        63.80864
765.09        63.84569
765.50        63.73817
765.92        63.54113
766.33        63.47075
766.75        63.44538
767.16        63.17911
767.58        62.73841
768.00        62.63436
768.41        62.92048
768.83        63.28653
769.24        63.57212
769.66        63.75393
770.07        63.78457
770.49        63.44102
770.90        62.97484
771.32        63.32061
771.73        64.25587
772.15        64.57066
772.56        64.21628
772.97        63.60018
773.39        62.92273
773.80        63.44888
774.22        63.50994
774.63        63.90892
775.05         63.9981
775.46        64.08714
775.88        64.09822
776.29        63.84297
776.70        63.45368
777.12        63.27008
777.53        63.36368
777.95        63.58364
778.36        63.85054
778.77        64.00027
779.19        64.00172
779.60         63.9429
780.02        63.82069
780.43        63.70577
780.84        63.64693
781.26        63.32722
781.67        62.93833
782.09        63.43769
782.50         64.5429
782.91        64.68109
783.33         63.8941
783.74          63.615
784.15        63.89509
784.57        63.89721
784.98        63.67246
785.39        63.64952
785.81        63.87565
786.22        64.34029
786.63        64.89388
787.04        65.17988
787.46        65.15159
787.87        64.94777
788.28        64.69691
788.70        64.53864
789.11        64.50233
789.52        64.56945
789.93         64.6865
790.35        64.75757
790.76        64.75745
791.17        64.70552
791.58        64.64133
792.00        64.54705
792.41          64.441
792.82        64.49413
793.23        64.63234
793.65         64.3168
794.06        63.74569
794.47        63.90302
794.88        64.64664
795.29         64.9331
795.71        64.67414
796.12          64.576
796.53        64.67572
796.94         64.4953
797.35        64.16245
797.76        64.36064
798.18        64.97638
798.59         65.2854
799.00        65.19938
799.41        65.10949
799.82        65.08824
800.23        65.08438
800.64        65.11559
801.06          65.154
801.47        65.19013
801.88        65.13039
802.29        64.95152
802.70        64.67757
803.11        64.36027
803.52        64.08363
803.93         63.9099
804.34        63.84722
804.75        63.87035
805.17        64.04694
805.58        64.41904
805.99        64.54252
806.40        64.51609
806.81        65.46839
807.22        66.93988
807.63        66.69119
808.04        64.99012
808.45        64.22561
808.86        64.58395
809.27        64.75344
809.68        64.59924
810.09        64.52739
810.50        64.51577
810.91        64.47564
811.32        64.46253
811.73        64.55296
812.14        64.75278
812.55        65.03528
812.96        65.33591
813.37        65.52303
813.78        65.54925
814.19        65.46085
814.60        65.28547
815.01        65.05574
815.42        64.79224
815.83        64.48562
816.24        64.19656
816.65        64.04378
817.05        64.07668
817.46        64.25566
817.87        64.50561
818.28        64.65626
818.69        64.66351
819.10        64.54576
819.51        64.42455
819.92        64.52007
820.33        64.87148
820.74         65.4021
821.14        65.90182
821.55        66.03762
821.96        65.74911
822.37        65.14553
822.78         64.4734
823.19        64.14954
823.60        64.29553
824.00        64.81479
824.41        65.46036
824.82        65.89902
825.23        66.00086
825.64        65.86289
826.04        65.60498
826.45        65.38525
826.86        65.28168
827.27        65.24772
827.68         65.2334
828.08        65.19299
828.49        65.06232
828.90        64.88257
829.31          64.747
829.72        64.79283
830.12        65.06221
830.53        65.46381
830.94        65.81954
831.35        65.78712
831.75        65.31725
832.16        64.50487
832.57        63.65768
832.97        63.24192
833.38        63.36568
833.79        63.86264
834.20        64.51701
834.60        64.98209
835.01        65.15524
835.42        65.18553
835.82        65.12313
836.23        64.98158
836.64        64.83136
837.04        64.61617
837.45        64.51103
837.86        64.87241
838.26        65.75648
838.67        67.02554
839.08        68.25727
839.48        68.64489
839.89         67.9947
840.29        66.59881
840.70        65.08769
841.11        64.19893
841.51        64.12395
841.92        64.62753
842.33        65.46579
842.73        66.19545
843.14        66.53414
843.54        66.66025
843.95        66.65227
844.35        66.68436
844.76        66.79056
845.17        66.89024
845.57         66.9223
845.98        66.78715
846.38        66.49615
846.79        66.09792
847.19        65.71033
847.60        65.48579
848.00        65.47031
848.41        65.59447
848.81        65.78864
849.22        65.85097
849.62        65.77307
850.03        65.61506
850.43        65.44609
850.84        65.31579
851.24         65.2923
851.65        65.27528
852.05        65.40726
852.46        65.82462
852.86        66.49754
853.27        67.34642
853.67        68.02579
854.07        68.17182
854.48           67.72
854.88        66.80891
855.29        65.69508
855.69        64.98749
856.10         64.8275
856.50        65.13879
856.90        65.66273
857.31        65.96358
857.71        65.94881
858.12        65.68091
858.52        65.34292
858.92        65.12733
859.33        65.08674
859.73        65.18866
860.13        65.28543
860.54        65.17609
860.94         64.8578
861.34        64.38646
861.75        63.94177
862.15         63.8437
862.55        64.13593
862.96        64.68735
863.36        65.30125
863.76        65.56701
864.17        65.35985
864.57        64.83377
864.97        64.14429
865.38        63.54307
865.78        63.15024
866.18        62.90018
866.58        62.78811
866.99        62.80234
867.39        62.94362
867.79        63.21568
868.19         63.5838
868.60        63.96064
869.00        64.34094
869.40        64.70042
869.80        65.00813
870.21        65.21708
870.61        65.36101
871.01        65.40369
871.41        65.33106
871.81        65.13101
872.22        64.81157
872.62        64.37712
873.02        63.95269
873.42        63.73572
873.82        63.77803
874.22        64.04613
874.63         64.3425
875.03        64.36798
875.43        64.04242
875.83         63.4377
876.23        62.81435
876.63        62.57704
877.03        62.81175
877.44        63.39359
877.84        64.01417
878.24        64.16838
878.64        63.71045
879.04        62.67826
879.44        61.58213
879.84        61.30826
880.24        61.96799
880.64        63.22027
881.04        64.50099
881.44        64.90421
881.84        64.21231
882.24        62.76217
882.65        61.08812
883.05        60.00982
883.45        59.77614
883.85        60.14662
884.25        60.88445
884.65        61.58001
885.05        62.05408
885.45        62.42389
885.85        62.70601
886.25        62.91726
886.65        63.07244
887.05        63.11632
887.45        63.05555
887.85        62.94624
888.25        62.80599
888.65        62.64076
889.04        62.45974
889.44        62.28452
889.84        62.11555
890.24        61.97412
890.64        61.84567
891.04        61.70444
891.44        61.55022
891.84        61.38372
892.24        61.26585
892.64        61.28027
893.04        61.44532
893.44        61.76563
893.83          62.138
894.23        62.33827
894.63        62.34049
895.03        62.16677
895.43        62.03897
895.83        62.33477
896.23        63.08816
896.63        64.13641
897.02        65.08701
897.42        65.34246
897.82        64.79054
898.22        63.69102
898.62        62.39817
899.01        61.43003
899.41        60.96514
899.81        60.84026
900.21        60.99821
900.61        61.34105
901.00        61.77848
901.40        62.32599
901.80        62.82896
902.20        63.02091
902.59        62.86303
902.99         62.4165
903.39        61.83411
903.79        61.39417
904.18        61.18482
904.58        61.13289
904.98        61.24697
905.38        61.53866
905.77        61.97304
906.17        62.56569
906.57        63.11517
906.96        63.27889
907.36        62.97995
907.76        62.32375
908.15        61.63215
908.55        61.40823
908.95         61.7754
909.34        62.59404
909.74        63.52392
910.14        64.07775
910.53        64.08249
910.93        63.70786
911.33        63.13011
911.72        62.60975
912.12        62.29984
912.52        62.11983
912.91        62.02104
913.31        61.95446
913.70         61.9022
914.10        61.86374
914.49        61.93966
914.89         62.2018
915.29        62.66261
915.68         63.2858
916.08        63.81758
916.47        63.91345
916.87        63.52485
917.26        62.74364
917.66        61.93889
918.05        61.53336
918.45        61.62955
918.84        62.16236
919.24        62.82115
919.64        63.18142
920.03         63.1295
920.42         62.7529
920.82        62.38478
921.21        62.49267
921.61         63.1468
922.00        64.21507
922.40         65.2793
922.79        65.74792
923.19        65.43136
923.58        64.57623
923.98        63.55966
924.37        62.86271
924.77        62.63732
925.16        62.70616
925.55        62.96661
925.95        63.22007
926.34        63.39007
926.74        63.52919
927.13        63.57991
927.52         63.3724
927.92        62.94823
928.31        62.33875
928.70        61.73909
929.10        61.43706
929.49        61.47817
929.89        61.72881
930.28        62.16208
930.67        62.60921
931.07        62.96183
931.46        63.34293
931.85        63.54577
932.24         63.2878
932.64        62.60257
933.03        61.54818
933.42        60.59934
933.82        60.44778
934.21        61.20949
934.60        62.73473
934.99        64.46468
935.39        65.37597
935.78        65.20865
936.17        64.15434
936.56        62.80421
936.96        62.10303
937.35        62.28585
937.74        63.07182
938.13        63.92959
938.53        64.03712
938.92        63.23722
939.31        61.88207
939.70        60.48644
940.09        59.76057
940.49        59.84461
940.88        60.52856
941.27         61.5279
941.66         62.3234
942.05         62.7116
942.44          62.859
942.84        62.86872
943.23        62.89249
943.62        62.99369
944.01        63.05179
944.40        63.11777
944.79        63.31787
945.18        63.64158
945.57        64.06991
945.97        64.35088
946.36        64.14385
946.75        63.37415
947.14        62.23565
947.53        61.06411
947.92        60.32694
948.31        60.13818
948.70        60.36662
949.09        60.87505
949.48        61.41217
949.87        61.85986
950.26        62.27174
950.65        62.61972
951.04         62.8676
951.43        63.00096
951.82        62.97739
952.21        62.83901
952.60         62.6865
952.99        62.56364
953.38         62.4897
953.77        62.41914
954.16        62.26633
954.55        62.01048
954.94        61.64748
955.33        61.31557
955.72         61.2479
956.11        61.48724
956.50        61.99079
956.89         62.4371
957.28        62.28683
957.66          61.449
958.05        60.15435
958.44        58.88895
958.83         58.3532
959.22        58.66427
959.61        59.60234
960.00        60.74731
960.39        61.31466
960.78        61.05333
961.16         60.2237
961.55        59.20179
961.94        58.45306
962.33        58.12828
962.72        58.10496
963.11        58.31247
963.49        58.65171
963.88        58.98499
964.27        59.34306
964.66        59.77903
965.04        60.40448
965.43        61.17492
965.82        62.07211
966.21        62.79309
966.60        62.79862
966.98        61.96972
967.37        60.57687
967.76        59.16851
968.15        58.42493
968.53        58.48008
968.92        59.19333
969.31        60.18575
969.69        60.68865
970.08        60.38861
970.47        59.54212
970.86        58.69892
971.24        58.64162
971.63        59.52311
972.02        61.12273
972.40        62.90052
972.79        63.55821
973.17        62.78273
973.56        61.02862
973.95         59.0924
974.33        57.98853
974.72        57.93273
975.11        58.62125
975.49         59.6596
975.88        60.23632
976.26        60.10835
976.65         59.4925
977.04        58.72898
977.42        58.29427
977.81        58.28617
978.19        58.51863
978.58        58.89568
978.96        59.24456
979.35        59.46095
979.74        59.61573
980.12        59.76349
980.51        59.76574
980.89        59.73904
981.28        59.70344
981.66         59.7022
982.05        59.77143
982.43        59.95466
982.82        60.20755
983.20        60.77131
983.59        61.96712
983.97        63.85407
984.35        66.24472
984.74        68.42653
985.12        69.46844
985.51         69.0642
985.89           67.52
986.28         65.5713
986.66        64.25859
987.04        63.92507
987.43        64.27465
987.81        64.95763
988.20        65.17753
988.58        64.69861
988.96        63.74583
989.35        62.64009
989.73          61.786
990.12        61.26768
990.50        60.98611
990.88        60.68313
991.27        59.98692
991.65        58.88451
992.03         57.5818
992.42        56.54713
992.80        56.37242
993.18        57.17318
993.56        58.79423
993.95         60.7049
994.33        62.03096
994.71        62.32756
995.10         61.8978
995.48        61.20474
995.86        61.07973
996.24        61.72205
996.63        62.71944
997.01        63.93482
997.39        64.75107
997.77         64.8739
998.15        64.63787
998.54        63.93823
998.92        62.46099
999.30        60.41013
999.68        57.95137
1000.06        55.94708
1000.45        55.59848
1000.83        57.20067
1001.21        60.56122
1001.59        64.75969
1001.97        67.46755
1002.35        67.72552
1002.73        66.17268
1003.12        64.07996
1003.50        63.08959
1003.88        63.69254
1004.26        65.26043
1004.64        67.40054
1005.02        69.23759
1005.40        70.26735
1005.78        70.96016
1006.16        70.91621
1006.54        69.45149
1006.92          66.781
1007.30        63.21962
1007.69        60.19518
1008.07        59.63105
1008.45        62.04624
1008.83        67.05719
1009.21        73.34032
1009.59        77.44076
1009.97         77.6147
1010.35        74.76225
1010.73        70.21809
1011.11        66.00303
1011.49        62.93555
1011.86        60.59746
1012.24        59.08823
1012.62        58.50912
1013.00        58.76539
1013.38        59.92562
1013.76        61.85757
1014.14        63.86995
1014.52        65.43657
1014.90        66.50459
1015.28        66.84238
1015.66        66.34853
1016.04        65.14654
1016.41        63.25216
1016.79        61.26727
1017.17        60.42706
1017.55        61.01256
1017.93        62.61337
1018.31        64.49922
1018.69        65.59232
1019.06        65.63593
1019.44        64.92944
1019.82        63.56664
1020.20        61.95883
1020.58        60.52288
1020.95        59.15097
1021.33        58.32482
1021.71        58.45976
1022.09        59.59575
1022.46        61.95573
1022.84        64.86256
1023.22        66.44631
1023.60        65.92715
1023.97        63.57624
1024.35        61.34632
1024.73        61.58899
