SpectraSmart Spectrum 2.9.0.0
--------- Device Information -----------
Spectrum Name :  反射率_0
Saving Time :  2024/04/26 23:20:44
Spectro-Module Model Name : SE2030-DUVN
Spectro-Module Serial Number : OS361AC55029948
Wavelength Start : 200
Wavelength End : 1025
Wavelength Unit : Wavelength(nm)
Spectrum Unit : Reflectance(%)
-----------Spectrum Setting ------------
Integration Time : 20ms
Average : 10
Boxcar : 0
Background removal :  enabled
linearity correction :  enabled
SC :  disabled
Intensity correction :  disabled
DWT denoise :  enabled
savitzky-golay :  disabled
FFT :  disabled
Running average :  disabled
Kalman :  disabled
High pass :  disabled
---------------BEGIN--------------------
Wavelength(nm)             Reflectance(%)
200.29               0
200.75        41.30061
201.21        41.39751
201.67        41.97364
202.13        41.85235
202.58        40.76253
203.04        39.41025
203.50        37.93206
203.96        36.83262
204.42        36.72913
204.88        37.15987
205.34        39.00661
205.80        43.63377
206.26        49.94753
206.72        56.12787
207.18         60.0507
207.64        60.10062
208.10        56.23716
208.55        48.50713
209.01        36.01259
209.47        25.19968
209.93        22.86575
210.39        26.32112
210.85        31.13125
211.31        35.21129
211.77        39.60094
212.23        47.63768
212.69        67.92809
213.14        110.1104
213.60        122.3506
214.06        102.3465
214.52          84.562
214.98        74.73586
215.44        68.44386
215.90        62.37036
216.36        56.66429
216.81        51.92377
217.27        48.58276
217.73        47.27749
218.19        47.30784
218.65        46.14941
219.11         43.8581
219.57        41.53639
220.02        41.61698
220.48        46.60447
220.94        57.00768
221.40        74.73716
221.86        97.95635
222.32         108.016
222.77        92.75056
223.23        66.49996
223.69        44.24321
224.15        33.52702
224.61        31.48632
225.06        33.56936
225.52        36.84908
225.98        38.50678
226.44        38.18378
226.90        36.91592
227.36        35.25272
227.81        33.97986
228.27        33.47636
228.73        33.28204
229.19        33.15704
229.65        32.90035
230.10        32.48137
230.56        32.04438
231.02        31.75966
231.48        31.86116
231.93        32.27756
232.39         32.9724
232.85        33.66013
233.31         34.0947
233.77        34.22861
234.22        34.17822
234.68        33.99936
235.14         33.9361
235.60        34.06575
236.05        34.36322
236.51        34.70404
236.97        34.78559
237.43        34.53952
237.88        34.13316
238.34        33.86307
238.80        34.39478
239.26        36.06398
239.71        39.20249
240.17        43.58876
240.63         48.3161
241.08        52.57332
241.54        55.71418
242.00        58.58786
242.46        63.77456
242.91         73.5863
243.37        89.42293
243.83        111.4807
244.28        129.2059
244.74        127.7723
245.20        108.2043
245.66        85.55984
246.11        72.73534
246.57        70.02417
247.03        73.06085
247.48         77.9636
247.94        78.12552
248.40        73.57493
248.85        68.20432
249.31        63.70459
249.77        59.96017
250.22        56.25525
250.68        51.37426
251.14         46.0684
251.59         44.1124
252.05        47.43302
252.51        54.38127
252.96        59.96826
253.42        59.96651
253.88        55.18583
254.33        47.73518
254.79        41.66745
255.25        40.16656
255.70        42.76013
256.16        47.87505
256.62        52.29973
257.07        51.51116
257.53        46.84354
257.99        41.32418
258.44        37.04752
258.90        35.76217
259.35        36.56506
259.81        38.51578
260.27        40.52211
260.72        41.31161
261.18        40.87873
261.63        39.61635
262.09         38.2393
262.55        37.12402
263.00        36.27159
263.46        35.63664
263.91        34.88779
264.37        33.81363
264.83        32.45329
265.28        30.95298
265.74        29.75512
266.19        29.20267
266.65        29.32868
267.11        29.89084
267.56        30.53639
268.02        30.69618
268.47        30.22341
268.93        29.30989
269.38        28.15905
269.84        27.13086
270.30        26.32619
270.75        25.63164
271.21        25.02569
271.66        24.44012
272.12        23.84572
272.57        23.27022
273.03         22.6852
273.48         22.0297
273.94        21.33393
274.39        20.59663
274.85        19.89807
275.31        19.25834
275.76        18.67824
276.22        18.17532
276.67        17.72855
277.13        17.34819
277.58        17.00127
278.04        16.68383
278.49        16.36557
278.95         16.0777
279.40        15.78227
279.86        15.51147
280.31        15.18916
280.77        14.76371
281.22        14.23018
281.68        13.65295
282.13        13.11489
282.59        12.76229
283.04        12.59457
283.50        12.55951
283.95        12.57065
284.41        12.48774
284.86        12.27877
285.32        12.00636
285.77        11.71127
286.22         11.4754
286.68        11.32178
287.13        11.20887
287.59        11.13908
288.04        11.09832
288.50        11.08563
288.95          11.087
289.41        11.09361
289.86         11.0599
290.32        10.99267
290.77        10.89939
291.22        10.79776
291.68        10.71147
292.13        10.64739
292.59        10.60634
293.04        10.60068
293.50        10.66229
293.95        10.78589
294.40        10.96298
294.86        11.16066
295.31        11.32178
295.77        11.44102
296.22        11.54351
296.68        11.65544
297.13        11.81377
297.58        12.03519
298.04        12.30441
298.49        12.63852
298.95        13.07166
299.40        13.59086
299.85        14.17945
300.31        14.76169
300.76        15.22455
301.21        15.55113
301.67        15.79279
302.12         16.0196
302.58        16.37278
303.03        16.87245
303.48        17.48784
303.94        18.17687
304.39        18.86415
304.84        19.53414
305.30        20.22254
305.75        20.92871
306.20        21.68202
306.66        22.49405
307.11        23.34628
307.57        24.23738
308.02        25.14003
308.47        26.05824
308.93        27.00512
309.38        28.00261
309.83        29.12575
310.29        30.39211
310.74        31.78425
311.19        33.23282
311.65        34.60072
312.10        35.83849
312.55        36.97029
313.00        38.09632
313.46        39.39548
313.91        40.90751
314.36        42.59871
314.82        44.35721
315.27        45.98777
315.72        47.41557
316.18        48.69843
316.63        49.92616
317.08        51.28263
317.53        52.81892
317.99        54.46476
318.44        56.13737
318.89        57.67863
319.35        59.02945
319.80        60.23489
320.25        61.34512
320.70        62.44782
321.16        63.57618
321.61          64.728
322.06        65.87145
322.51        66.95856
322.97        67.96203
323.42        68.89639
323.87        69.82052
324.32        70.85054
324.78        71.98009
325.23        73.21926
325.68        74.37501
326.13        75.12777
326.59        75.40178
327.04        75.31363
327.49        75.11666
327.94         75.2448
328.39        75.81774
328.85        76.70085
329.30        77.76765
329.75        78.58804
330.20        79.01482
330.66          79.153
331.11        79.18894
331.56        79.36999
332.01        79.78484
332.46        80.33365
332.92        80.89993
333.37        81.41767
333.82        81.79972
334.27        82.11375
334.72        82.37952
335.17        82.61052
335.63        82.82529
336.08        83.06329
336.53        83.37662
336.98        83.88991
337.43        84.61668
337.88        85.49451
338.34        86.41882
338.79        87.29977
339.24        88.03168
339.69        88.63453
340.14        89.03566
340.59        89.13925
341.05         88.9886
341.50        88.63052
341.95        88.27983
342.40        88.26073
342.85        88.65468
343.30        89.38474
343.75        90.28527
344.20        91.06488
344.66        91.61897
345.11        91.99879
345.56         92.2762
346.01        92.57722
346.46        92.94432
346.91        93.34377
347.36        93.69523
347.81        93.89428
348.26        93.92918
348.72        93.83345
349.17        93.76392
349.62        93.99212
350.07        94.54977
350.52        95.35816
350.97        96.11173
351.42        96.31709
351.87        95.89307
352.32        95.01872
352.77        94.08324
353.22        93.65959
353.67        93.87084
354.13         94.5386
354.58        95.36573
355.03         95.8224
355.48        95.74823
355.93        95.29797
356.38        94.72324
356.83        94.40325
357.28        94.41502
357.73        94.60665
358.18        94.76165
358.63        94.55042
359.08         93.9026
359.53        92.96526
359.98        91.92669
360.43        91.04137
360.88        90.38311
361.33        89.88007
361.78        89.46041
362.23        89.01462
362.68        88.51293
363.13        88.00292
363.58        87.51665
364.03         87.0894
364.48        86.72044
364.93        86.37411
365.38        86.02081
365.83        85.63088
366.28        85.19453
366.73        84.72266
367.18        84.22194
367.63        83.69907
368.08        83.16193
368.53        82.61718
368.98        82.07471
369.43        81.54578
369.88        81.03666
370.33        80.54807
370.78        80.08634
371.23         79.6648
371.68        79.28059
372.13        78.91789
372.58        78.56111
373.03        78.18507
373.48        77.77361
373.93        77.32995
374.38        76.83608
374.83        76.26897
375.28        75.64496
375.72        74.97759
376.17        74.36366
376.62        73.85535
377.07        73.47646
377.52        73.21753
377.97        73.05934
378.42        72.97456
378.87        72.93056
379.32        72.89008
379.77         72.8519
380.22        72.82092
380.67        72.77631
381.11         72.7341
381.56        72.53893
382.01        72.03207
382.46        71.24178
382.91        70.28871
383.36         69.4118
383.81        68.92522
384.26         68.8673
384.71        69.12443
385.15        69.53655
385.60        69.81173
386.05        69.84465
386.50        69.70493
386.95        69.41186
387.40        69.01022
387.85        68.54839
388.29        67.98318
388.74        67.47655
389.19        67.08241
389.64        66.81129
390.09        66.64415
390.54        66.53468
390.98        66.38145
391.43        66.19396
391.88         65.9905
392.33        65.79482
392.78        65.62444
393.23        65.48124
393.67        65.36484
394.12        65.31717
394.57        65.17229
395.02        64.96921
395.47        64.93815
395.91        65.04374
396.36        64.98173
396.81        64.75778
397.26        64.54491
397.71        64.35123
398.15        64.13654
398.60        63.98666
399.05        63.73633
399.50        63.46583
399.95        63.57291
400.39        63.94196
400.84        63.84989
401.29        63.32225
401.74        63.00479
402.18        62.94408
402.63        62.74051
403.08        62.45325
403.53        62.33355
403.97        62.38229
404.42        62.52628
404.87        62.67269
405.32        62.62874
405.76        62.35437
406.21        62.06686
406.66        61.81801
407.11        61.45297
407.55        61.16188
408.00        61.40199
408.45        62.07194
408.90        62.62664
409.34        62.81004
409.79        62.43946
410.24        61.73212
410.68        61.34713
411.13        61.36974
411.58        61.42177
412.03        61.41299
412.47        61.37856
412.92        61.27229
413.37        61.11943
413.81        60.97224
414.26        60.96263
414.71        61.08753
415.15        61.33042
415.60        61.60028
416.05         61.8082
416.49        61.92161
416.94        61.95445
417.39        61.95089
417.83        61.97071
418.28         62.0351
418.73        62.11889
419.17        62.20682
419.62        62.27962
420.07        62.32306
420.51        62.32965
420.96        62.32487
421.41        62.28836
421.85        62.20744
422.30        62.17125
422.74        62.11884
423.19        62.02897
423.64        61.88728
424.08        61.76434
424.53        61.72656
424.98        61.81798
425.42        62.07813
425.87        62.59111
426.31        63.17311
426.76        63.07207
427.21        62.44196
427.65        62.33884
428.10        62.71674
428.54        62.80608
428.99        62.65473
429.44        62.36641
429.88        62.16447
430.33        62.89427
430.77        64.12608
431.22        64.50589
431.66        63.99905
432.11        63.46687
432.56        63.19199
433.00        63.19153
433.45        63.53608
433.89        64.16677
434.34        64.58585
434.78        64.84296
435.23         64.4434
435.67        62.73185
436.12        63.47509
436.57         63.5133
437.01        63.76371
437.46        63.95086
437.90        64.14098
438.35        63.13021
438.79        63.64066
439.24          63.566
439.68         63.6581
440.13        64.00926
440.57        64.58169
441.02        64.65786
441.46        64.33087
441.91        65.04829
442.35        66.31552
442.80        66.12328
443.24        64.78521
443.69        64.70023
444.13        65.78783
444.58        66.24394
445.02        65.97547
445.47        65.84647
445.91        65.94697
446.36        66.12034
446.80        66.35776
447.24         66.6713
447.69        66.98608
448.13        67.10372
448.58        67.06929
449.02        67.13426
449.47        67.28758
449.91        67.26601
450.36        67.09509
450.80        66.91017
451.25        66.79413
451.69         66.7536
452.13        66.81439
452.58        66.96264
453.02        67.13493
453.47        67.23221
453.91        67.21843
454.36        67.13168
454.80        66.99352
455.24        66.77303
455.69        66.49038
456.13        66.27641
456.58        66.21918
457.02          65.744
457.46         65.5937
457.91        65.82153
458.35        66.33736
458.79        66.28781
459.24        65.68183
459.68        64.86373
460.13         64.1213
460.57        63.82661
461.01        64.13495
461.46        64.36869
461.90        64.73582
462.34        65.91048
462.79        65.66618
463.23        65.65005
463.68        65.52655
464.12        65.50414
464.56        65.51366
465.01        64.82327
465.45        63.71229
465.89        63.34902
466.34        63.68252
466.78        64.03899
467.22        64.27068
467.67        63.99949
468.11        63.72029
468.55        63.67308
468.99         63.9509
469.44        63.94789
469.88        63.66479
470.32        63.48545
470.77        63.43724
471.21        63.37968
471.65        63.30651
472.10        63.26592
472.54        63.24868
472.98        63.22298
473.42         63.1702
473.87        63.18413
474.31        63.18728
474.75        62.92487
475.20        62.50994
475.64        62.41299
476.08        62.61464
476.52         62.5724
476.97        62.24814
477.41        62.21885
477.85        62.21516
478.29         62.0006
478.74         62.7398
479.18         62.9245
479.62        62.89968
480.06        62.85455
480.50        62.76379
480.95        62.58222
481.39        62.38997
481.83        62.13309
482.27        61.68031
482.72        62.57702
483.16        62.29972
483.60        62.20549
484.04        62.55298
484.48        62.76377
484.93        62.93799
485.37        62.50698
485.81        62.11123
486.25        61.33211
486.69        61.99437
487.14        62.88301
487.58        62.06882
488.02        62.60315
488.46        61.93171
488.90        61.66441
489.34        62.91274
489.79        63.58657
490.23        63.03775
490.67        62.40194
491.11        61.68072
491.55        61.43861
491.99        61.63688
492.43        61.58132
492.88        61.27613
493.32        61.27385
493.76        61.54537
494.20        61.73534
494.64        61.80511
495.08        61.81502
495.52        61.78239
495.96        61.83973
496.41        61.96436
496.85        61.91279
497.29        61.63447
497.73        61.70876
498.17        61.35537
498.61        61.25695
499.05        61.19638
499.49        61.30625
499.93         61.3355
500.37        61.48579
500.82        61.63435
501.26        61.60692
501.70        61.44529
502.14        61.43498
502.58        61.59599
503.02         61.7095
503.46        61.77018
503.90        61.92794
504.34        62.11921
504.78        62.14754
505.22        61.98019
505.66        61.71641
506.10        61.46859
506.54        61.25567
506.98        61.08338
507.42        61.41207
507.86        61.53748
508.30        61.35684
508.74        61.56973
509.18        61.47805
509.62        61.38433
510.06        61.31804
510.50        61.30832
510.94        61.31941
511.38        61.33681
511.82        61.36587
512.26        61.40119
512.70        61.44734
513.14        61.50021
513.58        61.55248
514.02        61.60463
514.46        61.63752
514.90        61.64962
515.34        61.69073
515.78        61.76779
516.22        61.67839
516.66         61.7449
517.10        61.67932
517.54         61.5816
517.98        61.46007
518.42        61.32816
518.86        61.19875
519.30        61.08119
519.74        60.97861
520.18        60.91473
520.62        60.92297
521.06        61.00581
521.50         61.1554
521.93        61.32796
522.37        61.43051
522.81        61.44925
523.25         61.4017
523.69        61.34075
524.13        61.35522
524.57        61.45741
525.01        61.60688
525.45         61.7483
525.89        61.79385
526.32         61.7149
526.76        61.56477
527.20        61.36564
527.64        61.15632
528.08        60.96187
528.52        60.77541
528.96         60.6353
529.40        60.59896
529.83        60.66863
530.27        60.83665
530.71        61.02939
531.15        61.13233
531.59        61.11755
532.03        61.00773
532.46        60.86289
532.90        60.82493
533.34        60.90925
533.78        61.03776
534.22        61.13993
534.66        61.18534
535.09        61.11049
535.53         60.8147
535.97        60.39858
536.41         60.1737
536.85        60.18477
537.28        60.29013
537.72        60.43999
538.16        60.59931
538.60        60.73259
539.04        60.84592
539.47        60.91888
539.91        60.96029
540.35        60.95825
540.79        60.91022
541.22        60.82743
541.66        60.75128
542.10        60.69095
542.54        60.65108
542.97        60.61533
543.41          60.582
543.85        60.53814
544.29          60.489
544.72        60.44961
545.16        60.45681
545.60        60.49783
546.04        60.63207
546.47        60.80428
546.91        60.76885
547.35        60.58357
547.79        60.60775
548.22        60.81229
548.66         60.8843
549.10        60.85929
549.53        60.80668
549.97        60.75436
550.41        60.61411
550.84         60.4621
551.28        60.42917
551.72        60.46849
552.15        60.56464
552.59        60.77929
553.03        60.28857
553.46        60.78978
553.90        60.76092
554.34        60.69454
554.77        60.62841
555.21        60.59327
555.65        60.58931
556.08        60.82542
556.52        60.88646
556.96        60.83204
557.39        60.90829
557.83        61.06551
558.27        60.90163
558.70        60.46608
559.14        60.29066
559.57        60.36766
560.01        60.38197
560.45        60.33108
560.88        60.42148
561.32        60.63523
561.75        60.76167
562.19        60.79578
562.63        60.75215
563.06        60.66646
563.50        60.66751
563.93        60.68934
564.37        60.68956
564.80        60.67183
565.24        60.48772
565.68        60.06306
566.11        60.64228
566.55        60.06802
566.98        60.00806
567.42        59.92059
567.85        60.12385
568.29        60.56377
568.72        60.71406
569.16        60.98199
569.60        61.00018
570.03        61.05924
570.47        61.19972
570.90        61.52184
571.34        60.65661
571.77        61.04564
572.21        61.26962
572.64        60.60183
573.08        61.21413
573.51        60.73465
573.95        60.72565
574.38        60.82354
574.82         60.7614
575.25         60.7563
575.69        60.99782
576.12        60.96247
576.56        60.58822
576.99        60.25186
577.42        60.57407
577.86        60.77017
578.29        61.27805
578.73        61.40256
579.16        61.22711
579.60        60.65194
580.03        60.69571
580.47        60.56621
580.90        61.23967
581.33        61.15145
581.77        61.37333
582.20        61.08147
582.64        61.39054
583.07        61.01183
583.51        60.80825
583.94        60.66403
584.37          60.791
584.81        61.18582
585.24        61.22644
585.68        60.88765
586.11        60.94396
586.54        60.95339
586.98        60.17836
587.41        59.97756
587.85        60.62478
588.28        60.38894
588.71        60.22412
589.15        60.40528
589.58         60.4192
590.01          60.189
590.45        60.45181
590.88        61.02061
591.31        60.87387
591.75        60.09185
592.18        60.08689
592.61          60.098
593.05        60.51409
593.48        60.71147
593.91        60.73764
594.35        60.55403
594.78        60.21199
595.21        59.87781
595.65        60.23734
596.08        61.26979
596.51         61.2203
596.94        60.65095
597.38        60.32369
597.81        60.40207
598.24        61.10733
598.68        60.52655
599.11        60.53693
599.54        61.34614
599.97        60.98329
600.41        60.57082
600.84        59.94051
601.27        60.28962
601.70        60.27889
602.14         60.5586
602.57        60.50191
603.00        60.42072
603.43        59.89067
603.87        60.53997
604.30        60.74878
604.73        61.03953
605.16        60.07402
605.60        60.08275
606.03        59.74538
606.46        59.68845
606.89        59.80457
607.32        60.33498
607.76         59.7461
608.19        60.26704
608.62        60.16894
609.05        60.22643
609.48        60.07773
609.92        60.45857
610.35        60.79256
610.78         59.9047
611.21        59.87858
611.64        59.91177
612.07        60.16919
612.50        60.13961
612.94        60.19173
613.37         60.2163
613.80        59.96695
614.23        59.58181
614.66         59.5376
615.09        59.84949
615.52        60.09198
615.96        60.15075
616.39        60.27063
616.82        60.46997
617.25        59.92709
617.68        59.88874
618.11        59.88248
618.54        60.19125
618.97        60.30005
619.40         60.1875
619.84        60.00657
620.27        59.90759
620.70         59.8248
621.13        59.79577
621.56        59.32342
621.99        58.75846
622.42        58.76721
622.85        59.32464
623.28        59.10613
623.71        59.19233
624.14        59.66292
624.57        59.78992
625.00        59.49226
625.43        59.75798
625.86        59.57854
626.29        59.40623
626.72        59.14075
627.15        59.23829
627.58        59.35358
628.01        59.45732
628.44        59.37166
628.87         59.2406
629.30        58.64715
629.73        59.12293
630.16        59.44128
630.59        59.25665
631.02        59.32497
631.45        59.43264
631.88        59.54118
632.31         59.6178
632.74        59.66149
633.17        59.65409
633.60         59.5761
634.03         59.4341
634.46        59.23805
634.89        59.03157
635.32        58.86834
635.75        58.83006
636.18        58.78692
636.61        58.76809
637.04        58.82662
637.47        58.95341
637.89        59.12242
638.32        59.25895
638.75        59.29971
639.18        59.22761
639.61        59.06204
640.04        58.86733
640.47        58.74944
640.90        58.73643
641.33        58.80224
641.76        58.90183
642.18        58.96446
642.61         58.9486
643.04        58.88442
643.47        58.80392
643.90        58.75737
644.33        58.75595
644.76        58.78138
645.18        58.80542
645.61        58.76793
646.04        58.67088
646.47        58.54689
646.90         58.4351
647.33        58.39444
647.75        58.41428
648.18        58.49398
648.61        58.65319
649.04        58.75758
649.47        58.69868
649.89         59.2933
650.32        58.94278
650.75        58.79807
651.18        58.51105
651.61        58.53466
652.03        58.85746
652.46        58.99879
652.89        58.90711
653.32        59.00306
653.74        59.13013
654.17        58.83232
654.60         59.0329
655.03        59.10504
655.46        58.26227
655.88        58.18786
656.31        60.06414
656.74        60.57346
657.16        60.92043
657.59        61.97104
658.02        59.52328
658.45        59.68848
658.87        59.12904
659.30        58.75094
659.73        58.91761
660.15        59.92919
660.58        59.06195
661.01        58.91027
661.44        58.73167
661.86        58.48777
662.29        58.17986
662.72        58.68068
663.14        58.77414
663.57        58.73933
664.00        58.35932
664.42        58.35235
664.85        58.74198
665.27        59.11602
665.70        59.33022
666.13         59.4067
666.55        59.32225
666.98         59.0108
667.41        58.56165
667.83        58.50867
668.26        58.28547
668.69        58.33653
669.11        58.45512
669.54        58.57491
669.96        58.66797
670.39        58.81595
670.82          58.979
671.24        58.92801
671.67        58.72429
672.09        58.66196
672.52        58.76191
672.94        58.83244
673.37        58.83604
673.80        58.74551
674.22        58.59886
674.65        58.51505
675.07        58.52268
675.50        58.51649
675.92        58.48919
676.35        58.47147
676.77        58.46073
677.20        58.44115
677.62        58.42382
678.05        58.42569
678.47        58.44892
678.90         58.5007
679.32        58.55177
679.75        58.56486
680.17        58.52448
680.60        58.44191
681.02        58.37355
681.45        58.36277
681.87        58.43056
682.30         58.6664
682.72        58.97143
683.15        58.90089
683.57        58.53493
684.00        58.43506
684.42        58.62978
684.85        58.71138
685.27        58.66868
685.70        58.79263
686.12        59.02483
686.54        59.07751
686.97          58.962
687.39         58.9296
687.82        58.96545
688.24        58.89582
688.66        58.72443
689.09        58.55734
689.51        58.44547
689.94        58.39582
690.36        58.42511
690.78        58.51263
691.21        58.64213
691.63        58.77577
692.06        58.89795
692.48        59.02666
692.90        59.10975
693.33         59.0721
693.75        58.90589
694.17        58.60383
694.60        58.30309
695.02         58.2231
695.44        58.37646
695.87        58.74905
696.29        59.16974
696.71        59.07168
697.14        58.55398
697.56        58.37612
697.98        58.58271
698.41        58.64645
698.83        58.56333
699.25        58.70456
699.68        58.97266
700.10        59.07139
700.52         58.9437
700.94        58.68858
701.37        58.42112
701.79        58.33031
702.21        58.45193
702.64        58.70765
703.06        58.99186
703.48        59.12111
703.90        59.04592
704.33        58.82834
704.75        58.54992
705.17         58.3318
705.59        58.22294
706.01        58.19014
706.44        58.21797
706.86        58.30162
707.28        58.41828
707.70        58.56014
708.12        58.72059
708.55        58.90255
708.97        59.08091
709.39        59.17334
709.81        59.18102
710.23        59.19594
710.66        59.22255
711.08        59.22203
711.50        59.17387
711.92        59.08662
712.34        58.96896
712.76        58.83651
713.19         58.7089
713.61        58.64968
714.03        58.66231
714.45        58.73602
714.87        58.86718
715.29        59.04976
715.71        59.26559
716.13         59.4956
716.56        59.68486
716.98        59.82588
717.40        59.87041
717.82        59.82455
718.24        59.68831
718.66        59.46614
719.08        59.18876
719.50        58.89021
719.92        58.62344
720.34         58.4599
720.76        58.41673
721.19        58.45332
721.61         58.5912
722.03        58.81721
722.45        59.09836
722.87         59.4176
723.29        59.67077
723.71        59.69349
724.13        59.46578
724.55         59.0505
724.97        58.58366
725.39        58.29648
725.81        58.25607
726.23        58.37665
726.65        58.59539
727.07         58.9353
727.49        59.13712
727.91        59.39805
728.33        59.62126
728.75        59.75446
729.17        59.78347
729.59        59.70556
730.01        59.57591
730.43        59.49545
730.85        59.48773
731.27        59.52611
731.69        59.56398
732.10        59.52087
732.52        59.38246
732.94        59.20045
733.36        59.03071
733.78        58.84818
734.20        58.66578
734.62        58.69336
735.04        59.00473
735.46        58.61971
735.88        59.26746
736.30        59.52325
736.72        59.84501
737.13        60.08467
737.55        60.16903
737.97        60.21703
738.39        60.19022
738.81        59.88453
739.23        59.41416
739.65        59.27656
740.06        59.46204
740.48        59.58775
740.90        59.61748
741.32        59.81071
741.74        60.11626
742.16        60.29416
742.57        60.30774
742.99        60.20748
743.41        60.04666
743.83        59.89779
744.25        59.78949
744.67        59.68886
745.08          59.632
745.50        59.65389
745.92        59.76029
746.34        59.94469
746.75        60.12326
747.17        60.14327
747.59        59.98411
748.01        59.68868
748.42        59.37329
748.84        59.23044
749.26         59.3019
749.68        59.51693
750.09        59.76889
750.51        59.90085
750.93        59.85931
751.35         59.6849
751.76        59.43109
752.18        59.20942
752.60        59.05013
753.01        58.92991
753.43        58.83661
753.85        58.78469
754.27        58.78078
754.68        58.84114
755.10        58.95292
755.52         59.0864
755.93        59.21186
756.35        59.30831
756.77        59.42905
757.18        59.53058
757.60        59.60446
758.02        59.94696
758.43        60.40981
758.85         59.8014
759.26        59.69959
759.68        59.29213
760.10        59.00745
760.51        60.15318
760.93        60.20602
761.34         60.1743
761.76        60.03976
762.18        59.98257
762.59        60.22193
763.01        60.25749
763.42         60.1705
763.84        60.12899
764.26        60.15008
764.67        60.24478
765.09        60.35841
765.50        60.07437
765.92        59.56084
766.33        59.44672
766.75        59.64582
767.16        59.67447
767.58        59.47319
768.00        59.17446
768.41        58.94828
768.83        59.36283
769.24        60.17262
769.66        60.26641
770.07        59.69551
770.49        59.30873
770.90        59.29174
771.32        59.67789
771.73        60.31389
772.15        60.58573
772.56        60.44065
772.97        60.24345
773.39        60.11335
773.80        60.06919
774.22        60.12769
774.63        60.33384
775.05        60.54342
775.46        60.58224
775.88        60.38774
776.29        60.04562
776.70        59.69451
777.12        59.57481
777.53        59.74828
777.95        60.10182
778.36        60.51461
778.77         60.7505
779.19         60.7583
779.60        60.63087
780.02        60.41644
780.43        60.26517
780.84        60.24065
781.26        60.04034
781.67         59.7912
782.09         60.2537
782.50        61.16814
782.91        61.20218
783.33        60.42073
783.74        60.11543
784.15        60.34595
784.57        60.35305
784.98        60.16263
785.39        60.16404
785.81        60.36758
786.22        60.66729
786.63        60.97802
787.04        61.16214
787.46        61.19658
787.87        61.10877
788.28        60.97872
788.70        60.90889
789.11        60.90924
789.52         60.9787
789.93        61.07285
790.35         61.0986
790.76        61.04963
791.17        60.96994
791.58        60.90702
792.00        60.85262
792.41        60.82961
792.82        60.95567
793.23        61.13148
793.65        60.96955
794.06        60.60767
794.47        60.61126
794.88        60.88105
795.29        61.36741
795.71        60.90505
796.12        60.88791
796.53        61.00455
796.94        60.91025
797.35        60.68642
797.76        60.87617
798.18        61.40384
798.59        61.69233
799.00        61.66641
799.41        61.63416
799.82        61.61969
800.23        61.53032
800.64        61.38106
801.06        61.17587
801.47          60.983
801.88        60.83729
802.29        60.75562
802.70        60.72911
803.11        60.74814
803.52        60.79075
803.93        60.85944
804.34        60.96403
804.75        61.09018
805.17        61.27627
805.58        61.55702
805.99         61.6651
806.40        61.64301
806.81        62.11754
807.22        62.83178
807.63        62.52865
808.04        61.40091
808.45        60.85929
808.86        61.02815
809.27        61.16474
809.68        61.15168
810.09        61.14154
810.50        61.10319
810.91         61.0017
811.32        60.93686
811.73        61.06641
812.14        61.41034
812.55        61.91088
812.96        62.42239
813.37        62.66941
813.78        62.56987
814.19        62.22713
814.60        61.76608
815.01         61.3531
815.42        61.03801
815.83        60.76836
816.24        60.57313
816.65        60.50853
817.05        60.58981
817.46        60.80017
817.87        61.04732
818.28         61.1323
818.69        61.01521
819.10        60.72242
819.51         60.4203
819.92        60.41786
820.33        60.78045
820.74        61.40204
821.14        62.04398
821.55        62.32499
821.96        62.15826
822.37        61.66299
822.78        61.05088
823.19        60.68279
823.60         60.6753
824.00        60.94456
824.41         61.3173
824.82        61.58492
825.23        61.65969
825.64        61.61747
826.04         61.5205
826.45        61.42638
826.86        61.37944
827.27        61.35588
827.68        61.34587
828.08         61.3695
828.49        61.38009
828.90        61.39276
829.31        61.44429
829.72        61.58769
830.12        61.84454
830.53        62.14697
830.94        62.39009
831.35        62.35852
831.75        62.03063
832.16        61.46119
832.57        60.85923
832.97        60.53625
833.38        60.56646
833.79        60.83659
834.20        61.21917
834.60          61.505
835.01          61.628
835.42        61.69268
835.82         61.6962
836.23        61.56517
836.64        61.34198
837.04        61.01038
837.45         60.7693
837.86        61.00363
838.26        61.78369
838.67        62.95919
839.08        64.13377
839.48        64.55176
839.89        64.01898
840.29        62.80362
840.70        61.46613
841.11        60.65284
841.51        60.53852
841.92        60.91486
842.33         61.5826
842.73        62.18548
843.14        62.48113
843.54        62.62194
843.95        62.66741
844.35        62.75563
844.76         62.9054
845.17        63.04676
845.57        63.11177
845.98        62.98883
846.38        62.68552
846.79        62.24995
847.19        61.80722
847.60        61.52651
848.00        61.46165
848.41        61.54705
848.81        61.71111
849.22        61.75222
849.62        61.65747
850.03         61.4814
850.43        61.30222
850.84         61.1875
851.24         61.2015
851.65        61.24678
852.05         61.4149
852.46        61.76407
852.86        62.26215
853.27        62.86866
853.67        63.33236
854.07        63.40803
854.48        63.05017
854.88        62.35545
855.29        61.51191
855.69         60.9931
856.10        60.88813
856.50        61.13977
856.90        61.52952
857.31        61.69207
857.71        61.56339
858.12        61.20443
858.52        60.76783
858.92        60.40351
859.33        60.16791
859.73        60.04981
860.13        60.00225
860.54        59.97508
860.94        59.98925
861.34        60.05899
861.75        60.19988
862.15        60.46747
862.55        60.83057
862.96        61.19973
863.36        61.55253
863.76        61.79098
864.17        61.86552
864.57         61.8443
864.97        61.64586
865.38        61.15294
865.78        60.41515
866.18        59.48106
866.58        58.63441
866.99        58.36583
867.39        58.79995
867.79        59.76952
868.19        60.91914
868.60        61.68594
869.00        61.94343
869.40        61.80255
869.80        61.43029
870.21        61.17101
870.61        61.20492
871.01        61.36637
871.41        61.51522
871.81        61.46169
872.22        61.16601
872.62        60.71851
873.02        60.25487
873.42        59.97585
873.82        59.94834
874.22        60.10859
874.63        60.33802
875.03        60.47509
875.43        60.45173
875.83        60.30546
876.23        60.12711
876.63        60.05955
877.03        60.13821
877.44        60.29663
877.84         60.4341
878.24        60.41996
878.64        60.18236
879.04        59.61865
879.44        58.99229
879.84        58.82341
880.24         59.1615
880.64          59.813
881.04        60.41858
881.44        60.41782
881.84         59.7005
882.24         58.4726
882.65         57.1839
883.05        56.52826
883.45        56.67892
883.85        57.43087
884.25        58.44333
884.65        59.12711
885.05        59.29358
885.45        59.12638
885.85        58.82774
886.25        58.70753
886.65        58.85184
887.05        59.12621
887.45        59.44335
887.85        59.68135
888.25        59.78529
888.65         59.8126
889.04        59.75381
889.44         59.6091
889.84        59.37825
890.24        59.05043
890.64        58.69791
891.04        58.44898
891.44        58.34254
891.84        58.37764
892.24        58.45116
892.64        58.38763
893.04        58.17345
893.44        57.87492
893.83        57.67577
894.23        57.82928
894.63         58.3914
895.03        59.23232
895.43        60.14971
895.83         60.8221
896.23        61.13031
896.63        61.14828
897.02         60.9183
897.42         60.5524
897.82        60.12117
898.22        59.62706
898.62        59.15152
899.01        58.80785
899.41        58.63452
899.81        58.60691
900.21        58.68465
900.61        58.78103
901.00        58.85602
901.40        58.92075
901.80        58.94523
902.20        58.88351
902.59        58.74953
902.99        58.55749
903.39        58.36853
903.79        58.28584
904.18        58.32199
904.58        58.43381
904.98        58.62665
905.38        58.91124
905.77        59.27398
906.17        59.74126
906.57        60.14033
906.96        60.19234
907.36        59.84086
907.76        59.15634
908.15        58.50449
908.55        58.45285
908.95        59.10742
909.34        60.30897
909.74        61.52699
910.14         61.9528
910.53         61.3758
910.93        60.09795
911.33        58.59432
911.72        57.58974
912.12        57.34142
912.52        57.62057
912.91        58.17432
913.31        58.63565
913.70        58.88625
914.10        59.01284
914.49        59.16281
914.89        59.49151
915.29        60.03978
915.68        60.71616
916.08         61.2636
916.47        61.35284
916.87        60.94184
917.26        60.14307
917.66        59.31636
918.05        58.86296
918.45        58.87817
918.84        59.29088
919.24        59.82379
919.64        60.10557
920.03        60.03825
920.42        59.71545
920.82        59.38774
921.21        59.39146
921.61        59.78041
922.00        60.44687
922.40        61.14526
922.79        61.58039
923.19        61.61478
923.58        61.38064
923.98        60.99063
924.37        60.55083
924.77        60.13725
925.16         59.6805
925.55        59.28658
925.95        59.12769
926.34        59.24154
926.74        59.57212
927.13        59.90364
927.52        59.81128
927.92        59.27346
928.31        58.42963
928.70        57.57306
929.10        57.13086
929.49        57.18692
929.89        57.54375
930.28        58.14474
930.67        58.78517
931.07        59.32605
931.46        59.90317
931.85        60.25628
932.24        60.00974
932.64        59.19324
933.03        57.89898
933.42        56.70174
933.82        56.45191
934.21        57.29734
934.60        59.03898
934.99        61.04829
935.39        62.16644
935.78        62.07605
936.17        61.01398
936.56        59.58219
936.96        58.74521
937.35        58.76404
937.74        59.35361
938.13        60.04422
938.53        60.11895
938.92        59.43043
939.31        58.28573
939.70        57.12189
940.09        56.53043
940.49        56.61953
940.88        57.21381
941.27        58.04034
941.66        58.60792
942.05        58.75008
942.44        58.64221
942.84        58.44739
943.23        58.40758
943.62        58.59915
944.01        58.87068
944.40        59.21279
944.79        59.64964
945.18        60.11807
945.57        60.59737
945.97        60.82041
946.36        60.43336
946.75        59.38028
947.14        57.88618
947.53        56.31452
947.92        55.15815
948.31        54.56079
948.70         54.4141
949.09        54.65322
949.48        55.14267
949.87        55.78232
950.26        56.57117
950.65        57.39793
951.04        58.08318
951.43         58.5448
951.82        58.76439
952.21        58.74187
952.60        58.52744
952.99         58.1907
953.38        57.78237
953.77        57.40133
954.16        57.19214
954.55        57.18586
954.94        57.32058
955.33        57.61065
955.72         58.0525
956.11        58.58909
956.50        59.22053
956.89        59.65708
957.28        59.42883
957.66        58.49106
958.05        57.06672
958.44        55.65956
958.83        54.99862
959.22         55.2131
959.61        56.08377
960.00        57.23805
960.39        57.95701
960.78        57.97561
961.16        57.51012
961.55        56.80628
961.94         56.1554
962.33        55.67985
962.72        55.30107
963.11         55.0499
963.49        55.04702
963.88        55.24584
964.27          55.609
964.66        56.12708
965.04        56.80667
965.43        57.56575
965.82        58.43656
966.21        59.08333
966.60        58.90199
966.98        57.80489
967.37        56.10733
967.76        54.47725
968.15        53.75666
968.53        54.09389
968.92        55.29293
969.31        56.89679
969.69        57.94084
970.08        57.99408
970.47        57.33855
970.86         56.5083
971.24        56.28403
971.63        56.83428
972.02         57.9158
972.40        59.10015
972.79        59.35698
973.17        58.48774
973.56        56.92823
973.95        55.29242
974.33        54.31859
974.72        54.17072
975.11        54.59317
975.49        55.39262
975.88        56.14959
976.26        56.68006
976.65        57.03101
977.04        57.17337
977.42        57.03387
977.81        56.60653
978.19        55.90675
978.58        55.16308
978.96        54.72087
979.35         54.6628
979.74        54.92788
980.12        55.47723
980.51        55.99257
980.89        56.45256
981.28        56.88383
981.66        57.26784
982.05        57.55285
982.43        57.76896
982.82         57.8848
983.20        58.10327
983.59        58.72994
983.97        59.87593
984.35        61.40431
984.74        62.85278
985.12        63.68116
985.51        63.65343
985.89        62.94468
986.28        61.97382
986.66        61.29537
987.04        61.12647
987.43        61.30412
987.81         61.5952
988.20        61.47396
988.58        60.82849
988.96        59.78814
989.35        58.71738
989.73        58.09998
990.12        58.00852
990.50        58.36288
990.88        58.71447
991.27        58.30922
991.65        57.05112
992.03        55.26456
992.42        53.70124
992.80        53.38002
993.18        54.49352
993.56         56.7533
993.95        59.42731
994.33        61.21471
994.71        61.50262
995.10        60.74574
995.48        59.53297
995.86        58.85226
996.24        58.97548
996.63        59.45329
997.01        60.24915
997.39        60.98178
997.77        61.41348
998.15        61.79053
998.54        61.84335
998.92        61.00519
999.30        59.39161
999.68        57.21886
1000.06        55.30921
1000.45        54.82944
1000.83        56.06795
1001.21        58.76711
1001.59         62.1759
1001.97        64.38095
1002.35        64.60196
1002.73        63.47134
1003.12        61.83919
1003.50        60.70402
1003.88        60.44834
1004.26        60.55172
1004.64        61.21973
1005.02        62.82326
1005.40        65.17712
1005.78        68.24653
1006.16        70.63335
1006.54        70.13409
1006.92        66.63754
1007.30        61.02531
1007.69        55.38214
1008.07        52.50806
1008.45        53.20345
1008.83        56.86096
1009.21        62.25574
1009.59        66.19016
1009.97        66.98974
1010.35        65.49129
1010.73        62.73885
1011.11        60.29913
1011.49         58.7648
1011.86        57.68069
1012.24        56.99419
1012.62        56.69081
1013.00        56.71014
1013.38        57.14182
1013.76        58.07376
1014.14        59.40911
1014.52        60.91541
1014.90        62.41799
1015.28        63.42422
1015.66        63.42221
1016.04        62.39148
1016.41        60.44093
1016.79        58.16603
1017.17        56.77529
1017.55        56.65651
1017.93        57.53622
1018.31        58.72663
1018.69        59.19272
1019.06        58.68271
1019.44        57.39961
1019.82        55.88967
1020.20        55.40727
1020.58        56.34655
1020.95        58.09573
1021.33        59.85413
1021.71        60.65247
1022.09        60.38021
1022.46        59.37861
1022.84        57.94131
1023.22        56.94608
1023.60        56.88634
1023.97        57.33635
1024.35        58.32734
1024.73        59.73489
