SpectraSmart Spectrum 2.9.0.0
--------- Device Information -----------
Spectrum Name :  反射率_0
Saving Time :  2024/04/26 23:24:00
Spectro-Module Model Name : SE2030-DUVN
Spectro-Module Serial Number : OS361AC55029948
Wavelength Start : 200
Wavelength End : 1025
Wavelength Unit : Wavelength(nm)
Spectrum Unit : Reflectance(%)
-----------Spectrum Setting ------------
Integration Time : 20ms
Average : 10
Boxcar : 0
Background removal :  enabled
linearity correction :  enabled
SC :  disabled
Intensity correction :  disabled
DWT denoise :  enabled
savitzky-golay :  disabled
FFT :  disabled
Running average :  disabled
Kalman :  disabled
High pass :  disabled
---------------BEGIN--------------------
Wavelength(nm)             Reflectance(%)
200.29               0
200.75        40.06281
201.21        37.73515
201.67        36.04296
202.13        36.11345
202.58        38.00762
203.04         41.9168
203.50        47.45743
203.96        52.22696
204.42        54.12642
204.88        52.90632
205.34        49.52399
205.80         46.8208
206.26        45.81054
206.72        45.66002
207.18        45.36712
207.64         43.6588
208.10        40.12907
208.55        34.71436
209.01        27.51233
209.47          23.776
209.93        26.45092
210.39        31.97229
210.85         36.9559
211.31        40.55174
211.77        43.83943
212.23        48.76057
212.69        59.66041
213.14        80.77278
213.60        83.46501
214.06        71.35584
214.52        61.59829
214.98        55.74049
215.44        51.36461
215.90        46.98454
216.36        43.08214
216.81        40.63526
217.27        40.25335
217.73        42.23845
218.19        46.05294
218.65        47.73964
219.11        45.80746
219.57        42.63408
220.02        40.89592
220.48        42.55276
220.94        47.61407
221.40        56.69158
221.86        69.39188
222.32        77.22103
222.77        72.88776
223.23        62.39835
223.69        52.11385
224.15        45.40619
224.61        41.69344
225.06        39.48096
225.52        38.27253
225.98         37.4333
226.44        36.76849
226.90        36.42406
227.36        36.39807
227.81        36.60962
228.27        37.07389
228.73        37.60286
229.19        38.18012
229.65        38.87378
230.10        39.67288
230.56        40.56383
231.02        41.35117
231.48        41.73072
231.93        41.60485
232.39        41.28267
232.85        40.94492
233.31        40.91672
233.77        41.22224
234.22        41.78273
234.68        42.43004
235.14        43.02372
235.60         43.5366
236.05         44.1249
236.51        44.70338
236.97        45.07256
237.43        45.20492
237.88        45.12233
238.34        45.28315
238.80        46.77266
239.26        50.07367
239.71        55.70452
240.17        62.91447
240.63         69.1329
241.08        72.46174
241.54        72.10167
242.00        70.13245
242.46        71.65652
242.91        80.21259
243.37        97.50594
243.83        124.4546
244.28        148.9554
244.74        152.5359
245.20        134.8557
245.66        111.7891
246.11        98.25111
246.57        95.26371
247.03        98.18051
247.48        101.8961
247.94        98.76232
248.40        89.97132
248.85         80.4013
249.31        73.37664
249.77        69.82558
250.22        68.84201
250.68        69.45733
251.14        70.62728
251.59        69.72844
252.05        66.56139
252.51        63.61605
252.96        61.64177
253.42        61.36617
253.88        62.47282
254.33         63.6446
254.79        66.47045
255.25        72.34705
255.70        80.60451
256.16        90.49294
256.62        97.83232
257.07        96.50105
257.53        89.04055
257.99           79.96
258.44        72.56102
258.90        69.63628
259.35        69.81534
259.81        71.87498
260.27        74.30374
260.72        75.35082
261.18        75.03841
261.63        73.71737
262.09        72.35654
262.55        71.34996
263.00        70.60645
263.46        70.10256
263.91        69.27154
264.37        67.84447
264.83        65.84274
265.28        63.49043
265.74        61.43954
266.19         60.1092
266.65        59.59408
267.11        59.57227
267.56        59.66991
268.02        59.31094
268.47        58.34341
268.93        57.01252
269.38        55.46656
269.84        54.00619
270.30        52.71298
270.75        51.46198
271.21        50.35754
271.66        49.49197
272.12        48.85131
272.57        48.39244
273.03        47.87922
273.48        46.90616
273.94        45.49794
274.39        43.78442
274.85        42.15373
275.31        40.98202
275.76        40.30253
276.22        40.00718
276.67        39.85205
277.13        39.60018
277.58        39.11995
278.04        38.51843
278.49        37.81369
278.95        37.16753
279.40        36.55376
279.86        35.99126
280.31        35.37143
280.77        34.67165
281.22        33.86282
281.68        33.06665
282.13        32.33298
282.59        31.81299
283.04        31.49249
283.50        31.35169
283.95        31.32681
284.41        31.33466
284.86        31.33455
285.32        31.36117
285.77        31.40552
286.22        31.53228
286.68        31.73845
287.13         31.9432
287.59        32.11817
288.04        32.17518
288.50        32.12304
288.95        31.97007
289.41        31.75815
289.86        31.46674
290.32        31.16887
290.77        30.88506
291.22        30.71036
291.68        30.76168
292.13        31.05598
292.59        31.58445
293.04        32.31503
293.50        33.20767
293.95        34.22079
294.40        35.36268
294.86        36.58652
295.31        37.81165
295.77        39.03306
296.22        40.24582
296.68        41.52567
297.13        42.98099
297.58        44.64023
298.04         46.4688
298.49        48.38091
298.95        50.25919
299.40         52.0523
299.85        53.79657
300.31        55.53887
300.76        57.32991
301.21        59.18994
301.67        61.10329
302.12        63.01491
302.58        64.93909
303.03        66.82415
303.48        68.71656
303.94        70.62194
304.39        72.47031
304.84        74.29359
305.30        76.11507
305.75        77.96038
306.20        79.96509
306.66         82.1484
307.11        84.42149
307.57        86.66436
308.02        88.57737
308.47        90.14257
308.93        91.44933
309.38        92.66896
309.83        94.19557
310.29        96.10033
310.74        98.24882
311.19        100.3631
311.65        101.9582
312.10        102.8981
312.55        103.3397
313.00        103.5914
313.46        104.1321
313.91        105.0597
314.36        106.2611
314.82        107.5163
315.27        108.4871
315.72        109.0515
316.18        109.3477
316.63        109.5087
317.08        109.7875
317.53        110.2588
317.99        110.8349
318.44        111.4207
318.89        111.8361
319.35        112.0356
319.80        112.0922
320.25        112.1257
320.70        112.3207
321.16        112.7186
321.61        113.3011
322.06        113.9309
322.51        114.3954
322.97        114.6203
323.42        114.6636
323.87        114.6933
324.32        115.0108
324.78        115.6358
325.23         116.558
325.68        117.4392
326.13        117.7349
326.59        117.3293
327.04        116.4309
327.49        115.4669
327.94        115.1385
328.39        115.6168
328.85        116.6679
329.30        118.0253
329.75        118.9234
330.20        119.1101
330.66         118.762
331.11        118.2601
331.56        118.1366
332.01        118.5543
332.46        119.3244
332.92        120.1369
333.37        120.6547
333.82        120.7028
334.27         120.469
334.72        120.1658
335.17         120.113
335.63        120.4113
336.08        121.0117
336.53        121.8463
336.98        122.8574
337.43        123.9752
337.88        125.1784
338.34        126.3317
338.79        127.3403
339.24        128.0912
339.69         128.602
340.14        128.8566
340.59        128.8693
341.05        128.7233
341.50        128.4365
341.95        128.2099
342.40        128.3353
342.85        128.8706
343.30         129.739
343.75        130.7351
344.20        131.5014
344.66        131.9285
345.11        132.1001
345.56        132.1264
346.01        132.1989
346.46        132.3929
346.91        132.6629
347.36        132.9614
347.81        133.2319
348.26        133.4467
348.72        133.6064
349.17        133.7736
349.62        134.0814
350.07        134.5282
350.52        135.0818
350.97        135.4816
351.42        135.3199
351.87        134.5593
352.32        133.3575
352.77        132.1514
353.22        131.5746
353.67         131.744
354.13         132.465
354.58        133.3382
355.03         133.645
355.48         133.189
355.93        132.1796
356.38        131.0159
356.83        130.2977
357.28        130.1471
357.73        130.3506
358.18        130.5537
358.63        130.2048
359.08        129.1793
359.53        127.6891
359.98        126.0673
360.43        124.7793
360.88        123.9338
361.33        123.3889
361.78        122.9082
362.23        122.1289
362.68        120.9767
363.13          119.59
363.58         118.194
364.03        117.1164
364.48        116.4155
364.93        115.9601
365.38        115.5474
365.83        114.8657
366.28        113.8456
366.73        112.6153
367.18        111.3231
367.63        110.1876
368.08        109.2783
368.53        108.5227
368.98         107.883
369.43        107.3008
369.88        106.7376
370.33        106.2089
370.78        105.6706
371.23        105.0506
371.68        104.3324
372.13        103.5163
372.58        102.6563
373.03        101.8494
373.48         101.114
373.93        100.4251
374.38        99.72731
374.83        98.93242
375.28        98.03548
375.72        97.06825
376.17        96.15028
376.62        95.33681
377.07        94.65898
377.52        94.10873
377.97        93.66526
378.42        93.30978
378.87        93.01627
379.32        92.73991
379.77        92.50768
380.22        92.36013
380.67         92.2694
381.11        92.24622
381.56        92.04356
382.01        91.37424
382.46        90.25677
382.91         88.8716
383.36         87.5795
383.81         86.8622
384.26        86.77898
384.71        87.15247
385.15        87.73583
385.60        88.08463
386.05        88.04649
386.50        87.74046
386.95        87.21404
387.40        86.55818
387.85        85.85092
388.29        85.02671
388.74        84.29918
389.19        83.75134
389.64         83.3872
390.09        83.17012
390.54        83.01241
390.98        82.73966
391.43        82.35744
391.88        81.91419
392.33        81.45983
392.78        81.04108
393.23        80.67544
393.67        80.36551
394.12        80.17866
394.57        79.92403
395.02        79.65176
395.47        79.65305
395.91        79.85464
396.36        79.81464
396.81        79.51958
397.26         79.2029
397.71        78.88656
398.15        78.53334
398.60        78.26086
399.05        77.87866
399.50        77.48196
399.95        77.54486
400.39        77.93935
400.84        77.77515
401.29        77.08405
401.74        76.75349
402.18        76.75784
402.63        76.28077
403.08        75.46101
403.53        75.02499
403.97        75.01116
404.42        75.09999
404.87        75.17464
405.32        75.10572
405.76        74.83724
406.21        74.56898
406.66        74.31782
407.11         73.9086
407.55        73.52374
408.00        73.53342
408.45        73.90333
408.90        74.38551
409.34        74.68191
409.79        74.25732
410.24        73.27978
410.68        72.79598
411.13        72.87188
411.58        72.94468
412.03         72.8927
412.47        72.79575
412.92         72.6027
413.37        72.32922
413.81        72.06474
414.26        72.00766
414.71        72.15791
415.15        72.48645
415.60        72.85106
416.05         73.0842
416.49        73.12994
416.94        73.02328
417.39        72.85321
417.83        72.74337
418.28        72.73605
418.73        72.79502
419.17        72.87074
419.62        72.88808
420.07        72.81618
420.51        72.66008
420.96        72.50445
421.41        72.37782
421.85        72.26439
422.30        72.33128
422.74        72.41454
423.19        72.13789
423.64        71.57124
424.08         71.3352
424.53        71.46838
424.98        71.54712
425.42        71.56264
425.87        71.86214
426.31        72.29415
426.76        72.18604
427.21        71.62304
427.65        71.30294
428.10        71.27131
428.54         71.2458
428.99        71.28915
429.44        71.19514
429.88        71.12389
430.33        71.96342
430.77        73.22139
431.22        73.53317
431.66        72.85878
432.11         71.9691
432.56         71.2151
433.00        71.01868
433.45        71.54164
433.89        72.17465
434.34        72.17572
434.78        73.41926
435.23        72.23426
435.67        70.15202
436.12         70.7935
436.57        70.94295
437.01        71.65388
437.46        71.82951
437.90        71.45295
438.35        71.13175
438.79         70.9845
439.24        70.97894
439.68         71.1006
440.13        71.49736
440.57        72.09146
441.02        72.23052
441.46        71.98686
441.91        72.59943
442.35        73.64756
442.80        73.44479
443.24        72.25938
443.69        72.19642
444.13        73.17592
444.58        73.55363
445.02        73.27456
445.47        73.25204
445.91        73.51077
446.36        73.70313
446.80        73.80208
447.24        73.91916
447.69        73.98099
448.13         73.9948
448.58        73.95891
449.02         73.8606
449.47        73.73291
449.91        73.60036
450.36        73.50229
450.80        73.41259
451.25          73.375
451.69        73.39305
452.13        73.47805
452.58        73.61424
453.02        73.75274
453.47        73.82407
453.91        73.79219
454.36        73.67521
454.80        73.48827
455.24        73.19256
455.69        72.81115
456.13        72.53051
456.58        72.38726
457.02        71.82407
457.46        71.12474
457.91        71.41718
458.35        72.35929
458.79        72.49362
459.24        71.79178
459.68        70.93437
460.13        70.26161
460.57        69.95382
461.01        70.13855
461.46        70.33562
461.90        71.02726
462.34        71.37804
462.79        71.00555
463.23        71.13338
463.68        71.44575
464.12        71.27165
464.56        70.60413
465.01        69.73211
465.45         68.9131
465.89        68.86428
466.34        69.37033
466.78         69.5829
467.22          69.482
467.67        68.71864
468.11        68.80741
468.55        68.85558
468.99        69.15161
469.44        69.09061
469.88        68.66297
470.32        68.25443
470.77        67.95898
471.21        67.76608
471.65         67.6888
472.10        67.73061
472.54        67.84558
472.98        67.90118
473.42        67.83705
473.87        67.92172
474.31        68.02066
474.75        67.51135
475.20        66.65264
475.64        66.55253
476.08        67.15257
476.52        67.25838
476.97        66.77995
477.41        66.70277
477.85        67.17133
478.29         66.3914
478.74        66.64389
479.18        67.06342
479.62        67.15557
480.06        67.04224
480.50        66.91485
480.95        66.74761
481.39        66.78373
481.83        66.21107
482.27        65.97644
482.72        66.81838
483.16        66.30206
483.60        66.42939
484.04        66.58244
484.48        66.69627
484.93        66.59206
485.37        66.69118
485.81        66.48997
486.25        65.92046
486.69         67.6407
487.14        68.93785
487.58        67.27032
488.02        66.68694
488.46         65.7359
488.90        65.70916
489.34        66.55357
489.79        67.44444
490.23          66.963
490.67        66.34412
491.11        65.51469
491.55        65.21203
491.99        65.42185
492.43         65.3283
492.88        64.95646
493.32        64.96082
493.76        65.30913
494.20        65.55843
494.64        65.65092
495.08        65.71603
495.52        65.75635
495.96        65.73818
496.41        65.66643
496.85        65.64473
497.29        65.55951
497.73        65.45188
498.17        64.60919
498.61        64.58592
499.05         65.0601
499.49        65.28696
499.93        64.98614
500.37        64.94613
500.82         65.0958
501.26        65.06177
501.70        64.87956
502.14        64.86472
502.58        65.01088
503.02        65.08273
503.46        65.06928
503.90        65.10522
504.34        65.15813
504.78        65.10849
505.22        64.94104
505.66        64.72233
506.10         64.5443
506.54        64.42638
506.98        64.36482
507.42        64.76813
507.86         64.8846
508.30        64.86298
508.74        64.91058
509.18         64.7271
509.62        64.50536
510.06        64.34611
510.50        64.29124
510.94        64.29591
511.38        64.32582
511.82        64.33706
512.26        64.31467
512.70        64.28302
513.14        64.25446
513.58        64.24385
514.02        64.25652
514.46        64.27844
514.90        64.31405
515.34        64.37528
515.78        64.45613
516.22        64.54818
516.66        64.62008
517.10        64.62283
517.54        64.54794
517.98        64.41205
518.42        64.25035
518.86        64.11987
519.30        64.04016
519.74        64.00117
520.18        63.98753
520.62        63.96963
521.06        63.94299
521.50         63.9245
521.93        63.92906
522.37        63.95935
522.81        64.02117
523.25        64.09402
523.69        64.17583
524.13        64.27036
524.57        64.36586
525.01         64.4525
525.45         64.4912
525.89        64.42047
526.32         64.2321
526.76        63.97607
527.20         63.7024
527.64        63.49606
528.08        63.38442
528.52         63.3377
528.96        63.35517
529.40        63.44284
529.83        63.57629
530.27        63.73462
530.71        63.86234
531.15          63.902
531.59        63.84081
532.03        63.68021
532.46        63.48119
532.90        63.39642
533.34        63.44355
533.78        63.54558
534.22        63.63707
534.66        63.69415
535.09        63.64946
535.53        63.39267
535.97        63.01085
536.41        62.80411
536.85        62.81227
537.28        62.88962
537.72        63.00202
538.16        63.14606
538.60        63.29216
539.04        63.43541
539.47        63.53581
539.91        63.58023
540.35        63.55313
540.79        63.45582
541.22        63.33572
541.66        63.29189
542.10        63.33452
542.54        63.45082
542.97        63.57093
543.41        63.57895
543.85        63.46526
544.29        63.34624
544.72        63.24249
545.16        63.15691
545.60        63.09638
546.04        63.09141
546.47        63.14029
546.91        63.22081
547.35        63.31936
547.79        63.41893
548.22        63.50241
548.66        63.57841
549.10        63.68264
549.53        63.67331
549.97         63.5718
550.41        63.38453
550.84         63.1985
551.28        63.11806
551.72        63.10142
552.15        63.16363
552.59        63.37745
553.03        62.81866
553.46        63.36609
553.90        63.33871
554.34        63.27876
554.77        63.20138
555.21        63.18328
555.65        63.14808
556.08        63.41231
556.52        63.43015
556.96        63.29963
557.39        63.32391
557.83        63.45856
558.27        63.24474
558.70        62.76567
559.14        62.59171
559.57        62.70644
560.01        62.76039
560.45        62.74615
560.88        62.81723
561.32        62.98403
561.75        63.22021
562.19        63.45704
562.63        63.37291
563.06         63.0423
563.50        62.96118
563.93        63.07825
564.37        63.09683
564.80        63.04016
565.24        62.96015
565.68        62.71994
566.11         63.4059
566.55        62.74321
566.98        62.55856
567.42        62.34951
567.85         62.5467
568.29         63.0975
568.72        63.48406
569.16        63.70953
569.60        64.02716
570.03        64.12533
570.47        64.29927
570.90        64.54546
571.34        63.97463
571.77        64.24478
572.21        64.93069
572.64        64.62449
573.08        64.89299
573.51        63.95901
573.95         63.8409
574.38        64.24694
574.82        64.73399
575.25        64.33523
575.69        64.29884
576.12        64.40196
576.56        63.76352
576.99        63.75458
577.42        64.33522
577.86         64.1929
578.29        65.10317
578.73        65.27592
579.16        65.14091
579.60        64.39299
580.03        64.32887
580.47        64.10781
580.90        65.03377
581.33        64.89491
581.77        64.93593
582.20        65.39497
582.64        65.81161
583.07         65.0048
583.51        64.42554
583.94        63.96606
584.37        64.05215
584.81        64.29582
585.24        64.53396
585.68        64.50675
586.11         64.6077
586.54        64.91781
586.98        63.88091
587.41        63.37995
587.85        63.79512
588.28        63.87261
588.71        63.96059
589.15        63.44372
589.58        63.74197
590.01        63.46288
590.45        63.36346
590.88        64.32096
591.31        64.19508
591.75        63.51781
592.18        62.98922
592.61        62.88079
593.05        63.57134
593.48        64.30107
593.91        64.52213
594.35        64.11924
594.78        63.50731
595.21        62.91767
595.65        63.20047
596.08        64.38223
596.51        64.09932
596.94        63.65886
597.38        63.25743
597.81        63.28505
598.24        63.92698
598.68        63.52393
599.11        63.06032
599.54        64.47459
599.97         63.7802
600.41        63.67548
600.84        63.14249
601.27         63.7251
601.70        63.60188
602.14        63.94143
602.57        63.68144
603.00        63.41317
603.43        62.65619
603.87        63.78435
604.30        63.99919
604.73        63.98657
605.16        62.95056
605.60          63.041
606.03         62.7891
606.46         62.7704
606.89        62.81975
607.32          63.445
607.76        62.79451
608.19         63.3227
608.62         63.1153
609.05        62.99724
609.48        62.84869
609.92         63.5223
610.35        63.41508
610.78        63.05443
611.21        62.98085
611.64        62.85213
612.07        63.04071
612.50         63.0593
612.94        63.05929
613.37        62.87997
613.80        62.99621
614.23         62.4014
614.66        62.37095
615.09        62.61074
615.52        62.71391
615.96        62.56702
616.39        62.85234
616.82        62.90867
617.25        62.35747
617.68        62.44342
618.11         62.4534
618.54        62.71488
618.97        62.77044
619.40        62.65741
619.84        62.32445
620.27        62.45232
620.70        62.40148
621.13        62.32018
621.56         61.9048
621.99        61.28229
622.42        61.15307
622.85        61.51542
623.28        61.42285
623.71        61.53501
624.14        61.53944
624.57        61.96752
625.00        62.03944
625.43        62.01708
625.86        62.01939
626.29        62.19403
626.72        61.56826
627.15        61.94894
627.58        61.87944
628.01        61.85935
628.44        61.79961
628.87        61.70644
629.30        61.57948
629.73         61.4506
630.16        61.42691
630.59        61.50098
631.02        61.62688
631.45        61.77525
631.88        61.84303
632.31        61.78711
632.74        61.96832
633.17        61.75296
633.60        61.66676
634.03        61.53448
634.46        61.36609
634.89        61.19036
635.32        61.08172
635.75        61.06405
636.18        61.05054
636.61        61.04021
637.04        61.06524
637.47        61.11711
637.89        61.17852
638.32        61.21073
638.75        61.21267
639.18        61.18066
639.61        61.11324
640.04        61.03896
640.47        61.00559
640.90        61.02406
641.33        61.08646
641.76        61.15821
642.18        61.18791
642.61        61.14322
643.04         61.0454
643.47        60.94034
643.90        60.90192
644.33        60.94333
644.76        61.04315
645.18        61.14229
645.61        61.12682
646.04        60.98695
646.47        60.76993
646.90        60.55411
647.33        60.45614
647.75        60.47977
648.18          60.629
648.61        60.88426
649.04        60.99443
649.47        60.85161
649.89        61.42912
650.32        61.08977
650.75        60.93857
651.18        60.63659
651.61        60.76335
652.03        61.25435
652.46        61.44918
652.89        61.30819
653.32        61.19997
653.74        61.31923
654.17        60.95521
654.60        61.39607
655.03         61.2346
655.46        60.99181
655.88        60.73498
656.31        64.00251
656.74        67.50226
657.16         67.8143
657.59        67.70092
658.02        62.84419
658.45        62.43022
658.87        61.25418
659.30        61.50596
659.73         61.0542
660.15        62.39944
660.58         60.9936
661.01        60.79198
661.44        60.64823
661.86        60.51513
662.29        60.31473
662.72        60.78091
663.14        60.68877
663.57        60.55889
664.00        60.19806
664.42        60.20334
664.85        60.60041
665.27        61.04653
665.70        61.37244
666.13        61.52843
666.55        61.47415
666.98        61.15101
667.41        60.66755
667.83        60.60723
668.26        60.39515
668.69         60.4866
669.11        60.64545
669.54        60.78413
669.96        60.87089
670.39        60.95313
670.82        61.04337
671.24        61.07947
671.67        61.08235
672.09        61.13951
672.52        61.24431
672.94        61.26346
673.37        61.19653
673.80        61.10602
674.22        61.02679
674.65        60.95249
675.07        60.90895
675.50        60.89024
675.92        60.87477
676.35        60.81274
676.77        60.70128
677.20        60.55783
677.62        60.43138
678.05        60.39577
678.47        60.45888
678.90        60.60664
679.32        60.78563
679.75        60.88882
680.17        60.88092
680.60        60.92287
681.02        60.83693
681.45        60.80373
681.87        60.80092
682.30        60.89868
682.72        61.06953
683.15        61.12544
683.57        61.08308
684.00        61.09086
684.42        61.16677
684.85        61.23669
685.27        61.29191
685.70        61.38241
686.12        61.46872
686.54        61.48412
686.97        61.41573
687.39         61.2906
687.82        61.13598
688.24        61.01532
688.66        60.94846
689.09        60.92107
689.51        60.93055
689.94        60.95542
690.36        60.99555
690.78        61.00404
691.21        61.01108
691.63        61.14272
692.06        61.36079
692.48        61.46488
692.90        61.42247
693.33         61.3613
693.75        61.28053
694.17        61.06091
694.60        60.80407
695.02        60.73339
695.44        60.85484
695.87        61.12308
696.29        61.41224
696.71        61.30425
697.14        60.88329
697.56        60.72711
697.98        60.88561
698.41        60.97524
698.83        60.98799
699.25        61.20727
699.68         61.5205
700.10        61.65048
700.52        61.53559
700.94        61.27235
701.37        60.97814
701.79        60.84862
702.21         60.9261
702.64        61.13211
703.06        61.38644
703.48        61.54246
703.90        61.55465
704.33         61.4755
704.75        61.33928
705.17        61.19015
705.59        61.05956
706.01         60.9328
706.44        60.84725
706.86        60.88555
707.28        61.04445
707.70        61.29556
708.12        61.57757
708.55        61.79164
708.97        61.90314
709.39        61.89927
709.81         61.8174
710.23        61.77052
710.66        61.78133
711.08        61.81698
711.50        61.82937
711.92        61.77452
712.34        61.64742
712.76        61.47794
713.19        61.30274
713.61        61.21334
714.03        61.22155
714.45        61.30994
714.87        61.45434
715.29        61.61872
715.71        61.78037
716.13        61.92907
716.56        62.04627
716.98        62.18781
717.40        62.31905
717.82        62.43003
718.24        62.46542
718.66        62.34093
719.08        62.06696
719.50        61.70038
719.92        61.35505
720.34        61.19964
720.76        61.27016
721.19        61.49244
721.61        61.82353
722.03        62.14048
722.45        62.38026
722.87        62.56071
723.29        62.63609
723.71        62.53885
724.13        62.27893
724.55         61.8895
724.97        61.47287
725.39        61.20686
725.81         61.1445
726.23        61.22418
726.65        61.39503
727.07        61.70203
727.49        61.88313
727.91        62.13059
728.33        62.35661
728.75        62.53283
729.17        62.64261
729.59        62.67545
730.01        62.64706
730.43        62.59144
730.85        62.52524
731.27        62.45164
731.69        62.36859
732.10        62.26785
732.52        62.14959
732.94        62.03011
733.36        61.96099
733.78        61.89484
734.20         61.8236
734.62        62.00105
735.04        62.43414
735.46        61.93055
735.88        62.34645
736.30        62.29231
736.72        62.34986
737.13        62.56042
737.55        62.81848
737.97        62.92858
738.39        62.84889
738.81        62.63221
739.23        62.38535
739.65        62.43448
740.06        62.70594
740.48        62.82087
740.90        62.73511
741.32        62.70338
741.74        62.74815
742.16        62.76569
742.57        62.76072
742.99        62.75335
743.41        62.73002
743.83        62.64717
744.25        62.50502
744.67        62.31358
745.08        62.14707
745.50        62.09954
745.92        62.19947
746.34        62.41513
746.75        62.65973
747.17        62.78029
747.59        62.74461
748.01        62.59139
748.42        62.40789
748.84         62.3367
749.26         62.4092
749.68        62.57406
750.09        62.74662
750.51        62.79805
750.93        62.69674
751.35        62.50055
751.76        62.26117
752.18        62.06285
752.60        61.93075
753.01        61.86084
753.43        61.82274
753.85         61.7944
754.27        61.77397
754.68        61.78048
755.10         61.8311
755.52        61.94733
755.93        62.11544
756.35        62.30281
756.77        62.51759
757.18        62.67229
757.60        62.74164
758.02        62.94355
758.43        63.24312
758.85         62.6568
759.26        62.74809
759.68        62.28042
760.10        61.87045
760.51        61.96811
760.93        62.49191
761.34        62.73171
761.76        62.64494
762.18        62.79813
762.59         63.1604
763.01        63.12954
763.42        62.82576
763.84        62.70356
764.26        62.82704
764.67        63.04534
765.09        63.25356
765.50        63.05247
765.92        62.57006
766.33        62.34505
766.75         62.3634
767.16        62.32336
767.58        62.19073
768.00        62.13525
768.41        62.19541
768.83        62.46216
769.24        62.79136
769.66        62.76395
770.07        62.43361
770.49        62.12799
770.90        62.01418
771.32        62.40197
771.73         63.1072
772.15        63.36426
772.56        63.11473
772.97        62.69582
773.39        62.30584
773.80        62.25612
774.22        62.52631
774.63        62.77626
775.05        62.87033
775.46        62.96356
775.88        62.99463
776.29        62.85062
776.70         62.6137
777.12        62.53433
777.53        62.65946
777.95           62.86
778.36        63.08543
778.77         63.2212
779.19        63.25268
779.60        63.25282
780.02        63.17901
780.43        63.06616
780.84        62.95964
781.26        62.49224
781.67        61.92102
782.09        62.47531
782.50        63.81812
782.91        63.97941
783.33        63.01392
783.74        62.71398
784.15        63.14281
784.57        63.22019
784.98        62.99621
785.39        63.05773
785.81        63.42226
786.22        63.91904
786.63        64.39685
787.04        64.61574
787.46        64.53385
787.87        64.22543
788.28        63.84512
788.70        63.58718
789.11        63.48616
789.52        63.55322
789.93        63.70499
790.35         63.6892
790.76        63.52296
791.17        63.48381
791.58        63.58581
792.00        63.56652
792.41        63.43162
792.82        63.46458
793.23        63.63237
793.65        63.44463
794.06        63.07634
794.47        63.39635
794.88        64.22274
795.29        64.54661
795.71        64.27094
796.12        64.05242
796.53        63.97446
796.94        63.68458
797.35        63.34253
797.76        63.59816
798.18        64.27623
798.59        64.55476
799.00        64.32456
799.41        64.00967
799.82        63.76779
800.23        63.68392
800.64        63.80694
801.06        64.06708
801.47        64.36826
801.88        64.46822
802.29        64.30273
802.70        63.94586
803.11        63.51223
803.52        63.19106
803.93        63.06818
804.34        63.10093
804.75        63.24812
805.17         63.5185
805.58        63.92378
805.99         64.1571
806.40        64.24774
806.81        64.91986
807.22        65.84042
807.63        65.45386
808.04        64.01222
808.45        63.30208
808.86        63.49117
809.27        63.64206
809.68        63.63188
810.09        63.68983
810.50        63.77383
810.91        63.82368
811.32        63.89947
811.73        64.09316
812.14        64.40784
812.55        64.80374
812.96        65.15625
813.37        65.24016
813.78        65.00541
814.19        64.55028
814.60        64.01892
815.01        63.59683
815.42        63.33229
815.83        63.17767
816.24        63.12104
816.65        63.13345
817.05        63.20468
817.46        63.33311
817.87        63.49249
818.28        63.59024
818.69        63.61058
819.10        63.55115
819.51        63.50665
819.92        63.65833
820.33        64.02805
820.74        64.53877
821.14        65.02779
821.55        65.23477
821.96        65.10421
822.37        64.72565
822.78        64.23019
823.19         63.8425
823.60        63.65111
824.00        63.62204
824.41         63.6911
824.82        63.83777
825.23        64.02356
825.64        64.26257
826.04        64.50636
826.45        64.63259
826.86        64.62836
827.27        64.51652
827.68         64.3428
828.08        64.22633
828.49        64.15544
828.90         64.1136
829.31        64.11749
829.72        64.19099
830.12        64.34846
830.53         64.5425
830.94        64.68366
831.35        64.57246
831.75        64.19489
832.16        63.59715
832.57        62.98624
832.97        62.66938
833.38        62.71941
833.79        63.02958
834.20        63.46078
834.60        63.78633
835.01        63.93801
835.42        64.01841
835.82        64.05787
836.23        64.03733
836.64        64.00377
837.04        63.91845
837.45         63.9112
837.86        64.26254
838.26        65.01933
838.67        66.05452
839.08        67.03789
839.48        67.33643
839.89         66.7943
840.29        65.64339
840.70        64.39488
841.11        63.61685
841.51        63.46774
841.92        63.76914
842.33        64.34868
842.73        64.89619
843.14        65.18661
843.54        65.35777
843.95        65.46311
844.35        65.63689
844.76        65.88889
845.17        66.14789
845.57        66.33157
845.98         66.3007
846.38        66.05709
846.79        65.65614
847.19        65.22919
847.60        64.95808
848.00        64.90414
848.41        64.99411
848.81         65.1759
849.22        65.27553
849.62        65.28267
850.03        65.24407
850.43        65.19467
850.84        65.12617
851.24        65.09138
851.65        65.01059
852.05        65.03282
852.46        65.31593
852.86        65.85151
853.27        66.55505
853.67        67.12668
854.07        67.26198
854.48          66.896
854.88        66.15418
855.29        65.21145
855.69        64.52498
856.10        64.19886
856.50        64.19843
856.90        64.37431
857.31        64.47826
857.71        64.47035
858.12        64.36264
858.52        64.25032
858.92        64.17602
859.33        64.14124
859.73        64.15707
860.13        64.12411
860.54         63.9187
860.94        63.57025
861.34        63.11604
861.75        62.71313
862.15        62.65025
862.55        62.96062
862.96        63.51761
863.36        64.16644
863.76        64.56027
864.17        64.57806
864.57        64.35161
864.97        63.93038
865.38        63.40896
865.78        62.87765
866.18         62.3028
866.58        61.82813
866.99        61.70608
867.39        62.00288
867.79        62.65093
868.19        63.41973
868.60         63.9215
869.00        64.08809
869.40        63.97775
869.80        63.75384
870.21        63.74308
870.61        64.08173
871.01        64.58671
871.41        65.03099
871.81        65.10979
872.22        64.76385
872.62        64.10083
873.02        63.32283
873.42        62.76329
873.82        62.54108
874.22        62.57428
874.63        62.70714
875.03        62.70672
875.43        62.49594
875.83        62.15565
876.23        61.82586
876.63        61.71219
877.03        61.86322
877.44        62.18486
877.84        62.53615
878.24        62.71586
878.64        62.61627
879.04        62.14238
879.44        61.57124
879.84        61.44051
880.24        61.80802
880.64        62.48458
881.04        63.07813
881.44        62.97678
881.84        62.07113
882.24        60.58842
882.65        59.06986
883.05        58.34406
883.45        58.61062
883.85        59.63547
884.25        60.94925
884.65        61.74613
885.05        61.78319
885.45        61.29774
885.85        60.65619
886.25        60.41814
886.65        60.72381
887.05        61.37904
887.45        62.10794
887.85         62.4762
888.25        62.35916
888.65        61.90578
889.04        61.36181
889.44        61.12016
889.84        61.25646
890.24        61.63893
890.64        62.03723
891.04        62.08618
891.44        61.71254
891.84        61.07755
892.24        60.39913
892.64        59.98236
893.04        59.91525
893.44        60.10988
893.83        60.48395
894.23        60.85234
894.63        61.15827
895.03        61.42548
895.43        61.67996
895.83        61.96732
896.23        62.27326
896.63        62.53902
897.02        62.66352
897.42        62.53437
897.82        62.14618
898.22        61.58777
898.62        60.97414
899.01        60.45758
899.41        60.10873
899.81        59.88375
900.21        59.79597
900.61        59.85732
901.00        60.04266
901.40        60.33717
901.80         60.6345
902.20        60.75871
902.59         60.6824
902.99         60.4453
903.39        60.15356
903.79        59.98835
904.18        59.99426
904.58        60.11859
904.98        60.33493
905.38        60.60867
905.77        60.91872
906.17        61.29949
906.57        61.65283
906.96        61.81529
907.36        61.74376
907.76        61.47606
908.15        61.22568
908.55        61.32045
908.95        61.82039
909.34        62.62677
909.74        63.40905
910.14        63.70779
910.53        63.38722
910.93        62.62565
911.33         61.6704
911.72        60.88972
912.12        60.46682
912.52         60.3117
912.91        60.32809
913.31        60.38015
913.70        60.42306
914.10        60.46881
914.49        60.64219
914.89        61.06157
915.29        61.73898
915.68        62.60584
916.08        63.34917
916.47        63.53464
916.87        63.09892
917.26        62.17382
917.66        61.18937
918.05        60.65808
918.45        60.69796
918.84        61.20095
919.24        61.84639
919.64        62.18987
920.03        62.10212
920.42        61.69673
920.82        61.24013
921.21        61.08447
921.61        61.30017
922.00        61.79697
922.40        62.33392
922.79        62.62933
923.19         62.5686
923.58        62.28744
923.98        61.95687
924.37        61.76792
924.77        61.78864
925.16        61.90027
925.55        62.07723
925.95        62.26466
926.34        62.42709
926.74        62.56455
927.13        62.55627
927.52        62.14006
927.92        61.36365
928.31        60.34136
928.70        59.35971
929.10        58.82557
929.49        58.81706
929.89        59.15696
930.28        59.80396
930.67        60.55978
931.07        61.27781
931.46        62.07859
931.85        62.65032
932.24         62.5473
932.64        61.77558
933.03        60.42675
933.42        59.13184
933.82         58.8333
934.21        59.69595
934.60        61.50322
934.99        63.54723
935.39        64.52714
935.78        64.10957
936.17        62.59797
936.56        60.72982
936.96        59.67205
937.35        59.73726
937.74        60.57723
938.13        61.62363
938.53        61.99857
938.92        61.48416
939.31         60.4109
939.70        59.25128
940.09        58.64951
940.49         58.7397
940.88        59.35516
941.27         60.1728
941.66        60.62605
942.05        60.54861
942.44        60.13136
942.84        59.72143
943.23        59.84269
943.62        60.59815
944.01        61.74525
944.40         62.9433
944.79        63.67589
945.18        63.75508
945.57          63.311
945.97        62.44825
946.36        61.47236
946.75        60.52564
947.14        59.64087
947.53        58.85746
947.92        58.19484
948.31        57.67082
948.70        57.30119
949.09         57.2238
949.48        57.63773
949.87        58.52942
950.26        59.78509
950.65        61.02981
951.04        61.67112
951.43        61.54398
951.82        60.77908
952.21        59.73605
952.60        59.02655
952.99        58.85274
953.38        59.09765
953.77        59.51219
954.16        59.69193
954.55        59.52698
954.94        59.11114
955.33        58.74349
955.72        58.91811
956.11        59.73295
956.50         61.0303
956.89        62.25072
957.28        62.48153
957.66         61.5325
958.05        59.75371
958.44        57.87877
958.83         56.9566
959.22        57.19373
959.61        58.29728
960.00        59.68435
960.39        60.27164
960.78        59.73747
961.16         58.4593
961.55        57.03207
961.94         56.2211
962.33        56.23157
962.72        56.85278
963.11        57.78913
963.49        58.51207
963.88        58.72997
964.27        58.58204
964.66         58.3872
965.04        58.64824
965.43        59.41078
965.82        60.55918
966.21        61.57051
966.60        61.49195
966.98        60.12348
967.37        57.94044
967.76        55.78176
968.15        54.66952
968.53        54.78415
968.92         55.8671
969.31          57.392
969.69        58.28743
970.08        58.10976
970.47        57.20967
970.86        56.21003
971.24        55.99911
971.63        56.76979
972.02        58.25055
972.40        59.95326
972.79        60.69632
973.17        60.18612
973.56        58.86184
973.95        57.37702
974.33        56.56034
974.72        56.59385
975.11         57.1728
975.49        58.06327
975.88        58.76444
976.26        59.08701
976.65        59.15937
977.04        58.96156
977.42        58.41563
977.81        57.54387
978.19        56.35659
978.58        55.26178
978.96        54.88594
979.35        55.34972
979.74        56.53285
980.12        58.04634
980.51        58.92802
980.89        59.01219
981.28        58.53287
981.66        57.93253
982.05        57.84345
982.43        58.42973
982.82        59.44152
983.20        60.75836
983.59        62.06164
983.97         63.2197
984.35        64.28248
984.74        64.94305
985.12        64.94186
985.51         64.2048
985.89        62.84893
986.28        61.37996
986.66        60.48148
987.04        60.36951
987.43         60.8695
987.81        61.64129
988.20        61.89753
988.58         61.4271
988.96        60.43357
989.35         59.3056
989.73        58.58615
990.12        58.39258
990.50        58.59945
990.88        58.90668
991.27        58.83055
991.65        58.26133
992.03        57.37012
992.42        56.59917
992.80        56.53486
993.18        57.28251
993.56          58.666
993.95        60.09877
994.33        60.65406
994.71        59.95906
995.10        58.44424
995.48        56.71409
995.86        55.71313
996.24        55.66315
996.63        56.16205
997.01        57.13682
997.39        58.08804
997.77        58.73516
998.15        59.34886
998.54        59.62267
998.92        58.98405
999.30        57.55266
999.68        55.48623
1000.06        53.77583
1000.45         53.8734
1000.83        56.11542
1001.21        60.23986
1001.59        65.08883
1001.97        67.81367
1002.35        67.31739
1002.73        64.50983
1003.12        61.00732
1003.50        58.83941
1003.88        58.57892
1004.26        59.47768
1004.64        61.21763
1005.02        63.07262
1005.40        64.51434
1005.78        65.93499
1006.16        66.57939
1006.54        65.21233
1006.92        61.94606
1007.30        57.27165
1007.69        52.91322
1008.07        51.20582
1008.45        52.80527
1008.83        57.29345
1009.21         63.3574
1009.59        67.54701
1009.97        68.11339
1010.35         65.8905
1010.73        62.28754
1011.11        59.44889
1011.49        58.01812
1011.86        57.33703
1012.24        57.04215
1012.62        56.66241
1013.00        56.02393
1013.38        55.33885
1013.76        54.76897
1014.14        54.56596
1014.52        54.83449
1014.90        55.42493
1015.28        56.00247
1015.66         56.1559
1016.04        55.84206
1016.41        55.22527
1016.79        54.59063
1017.17        54.50047
1017.55        55.08775
1017.93        56.08171
1018.31        57.30177
1018.69        58.55613
1019.06        59.79551
1019.44        61.14995
1019.82        62.28072
1020.20        62.41517
1020.58        61.33947
1020.95        59.25591
1021.33          57.154
1021.71        56.03673
1022.09         56.0252
1022.46        57.07192
1022.84        58.41665
1023.22        58.26804
1023.60        56.15115
1023.97        52.71996
1024.35        49.78591
1024.73        49.23936
