SpectraSmart Spectrum 2.9.0.0
--------- Device Information -----------
Spectrum Name :  反射率_0
Saving Time :  2024/04/26 23:24:24
Spectro-Module Model Name : SE2030-DUVN
Spectro-Module Serial Number : OS361AC55029948
Wavelength Start : 200
Wavelength End : 1025
Wavelength Unit : Wavelength(nm)
Spectrum Unit : Reflectance(%)
-----------Spectrum Setting ------------
Integration Time : 20ms
Average : 10
Boxcar : 0
Background removal :  enabled
linearity correction :  enabled
SC :  disabled
Intensity correction :  disabled
DWT denoise :  enabled
savitzky-golay :  disabled
FFT :  disabled
Running average :  disabled
Kalman :  disabled
High pass :  disabled
---------------BEGIN--------------------
Wavelength(nm)             Reflectance(%)
200.29               0
200.75        40.95167
201.21        40.45935
201.67        39.91816
202.13        39.23114
202.58        38.30138
203.04        37.34375
203.50        36.78941
203.96        37.68987
204.42        40.67223
204.88        45.54123
205.34        50.97526
205.80        54.59511
206.26        55.51994
206.72        54.13145
207.18        52.03757
207.64        50.78507
208.10        50.51261
208.55        51.33572
209.01        51.94189
209.47        49.73318
209.93        45.35558
210.39        41.62195
210.85        39.80366
211.31         40.2652
211.77        43.34097
212.23        51.17773
212.69        72.77715
213.14        117.4922
213.60        128.9521
214.06        107.5509
214.52        88.38996
214.98        76.35257
215.44        67.02378
215.90        57.19074
216.36         47.6219
216.81        40.16793
217.27        35.65179
217.73        34.05307
218.19        35.29403
218.65        37.45512
219.11        38.98322
219.57         39.9304
220.02         41.8439
220.48        47.30719
220.94        57.23423
221.40         73.1279
221.86        94.20951
222.32        105.9856
222.77        97.04889
223.23        78.23178
223.69        60.30335
224.15        48.76931
224.61        42.49702
225.06        38.79772
225.52        37.18629
225.98        37.15885
226.44        38.23458
226.90        40.49249
227.36        42.72457
227.81        42.81847
228.27        40.69755
228.73        37.11344
229.19        33.88003
229.65        33.10524
230.10        34.83244
230.56        38.31652
231.02        41.95355
231.48        43.17701
231.93        41.56732
232.39        38.43952
232.85         35.3578
233.31        34.33477
233.77        35.57167
234.22        38.34044
234.68        41.56527
235.14        43.68365
235.60        44.23919
236.05        43.77459
236.51        42.82437
236.97        42.47202
237.43        43.22473
237.88        44.72847
238.34        46.83928
238.80         49.7016
239.26        53.47591
239.71         58.9005
240.17        65.52098
240.63        71.64879
241.08        75.96073
241.54        77.46374
242.00        77.69462
242.46        80.82639
242.91        89.95751
243.37        106.4813
243.83        131.1475
244.28        152.8696
244.74        154.6282
245.20        136.5436
245.66        113.0251
246.11        96.83187
246.57        88.88681
247.03        85.29772
247.48        83.39097
247.94        79.81944
248.40        75.21815
248.85        71.44356
249.31          69.283
249.77        68.41595
250.22        68.32986
250.68        68.40536
251.14         68.7416
251.59        69.62211
252.05        71.11557
252.51        73.54387
252.96        74.52819
253.42        72.32944
253.88        67.86089
254.33        62.21383
254.79        59.10861
255.25        61.60716
255.70        68.97257
256.16        79.44836
256.62        88.66981
257.07        89.98974
257.53        84.95785
257.99        77.81503
258.44        71.52581
258.90        68.70348
259.35        68.22839
259.81         69.1095
260.27        70.21806
260.72        70.33621
261.18        69.57659
261.63        68.16891
262.09        66.81927
262.55        65.66876
263.00        64.64109
263.46        63.80058
263.91        62.79858
264.37        61.60207
264.83        60.19727
265.28        58.63812
265.74        57.32096
266.19        56.38135
266.65        55.87984
267.11         55.6127
267.56          55.358
268.02        54.78041
268.47        53.80505
268.93        52.60153
269.38        51.25214
269.84        49.95064
270.30         48.7498
270.75        47.57216
271.21        46.54231
271.66        45.77931
272.12        45.27319
272.57        44.95728
273.03        44.58522
273.48        43.74605
273.94        42.45187
274.39        40.83775
274.85        39.27537
275.31        38.12436
275.76        37.42834
276.22        37.09201
276.67        36.90156
277.13        36.65612
277.58        36.22973
278.04        35.70216
278.49        35.08726
278.95        34.52939
279.40        33.99864
279.86        33.52726
280.31        32.97046
280.77        32.24561
281.22        31.33626
281.68         30.3813
282.13         29.5286
282.59        29.06044
283.04        28.96956
283.50        29.17785
283.95         29.5007
284.41        29.65312
284.86        29.55651
285.32        29.32914
285.77         29.0693
286.22        28.98686
286.68        29.11991
287.13        29.34386
287.59        29.61236
288.04        29.81392
288.50        29.93144
288.95        29.97668
289.41        29.95451
289.86          29.791
290.32        29.54794
290.77        29.25933
291.22        29.04593
291.68        29.06981
292.13        29.36413
292.59        29.91009
293.04        30.67196
293.50        31.60134
293.95        32.65205
294.40        33.83436
294.86        35.10035
295.31        36.36556
295.77        37.62215
296.22        38.86588
296.68        40.16202
297.13        41.60635
297.58        43.22752
298.04        44.99482
298.49        46.84809
298.95        48.70922
299.40        50.53453
299.85        52.35122
300.31        54.17427
300.76         56.0032
301.21        57.85308
301.67        59.73166
302.12        61.61871
302.58        63.58054
303.03        65.57207
303.48        67.60714
303.94        69.67395
304.39        71.67892
304.84        73.64109
305.30          75.596
305.75        77.53188
306.20        79.53004
306.66        81.60651
307.11        83.67971
307.57        85.71837
308.02        87.56067
308.47          89.206
308.93         90.7086
309.38        92.11027
309.83        93.59991
310.29        95.22552
310.74        96.93356
311.19        98.61085
311.65        100.0405
312.10        101.1421
312.55        101.9639
313.00         102.676
313.46         103.553
313.91        104.6303
314.36         105.863
314.82          107.05
315.27        107.8847
315.72        108.2804
316.18        108.3657
316.63        108.3461
317.08        108.5941
317.53         109.199
317.99          110.04
318.44        110.9317
318.89        111.5342
319.35        111.7563
319.80        111.7172
320.25        111.5871
320.70        111.6375
321.16        111.9432
321.61        112.4571
322.06        113.0509
322.51        113.5269
322.97        113.8098
323.42        113.9659
323.87        114.1227
324.32        114.5081
324.78        115.1255
325.23        115.9736
325.68        116.7724
326.13        117.0836
326.59        116.8127
327.04        116.1312
327.49        115.3816
327.94        115.1376
328.39        115.5374
328.85        116.3766
329.30        117.4673
329.75        118.1879
330.20        118.3397
330.66        118.0757
331.11        117.6868
331.56        117.5565
332.01        117.8123
332.46        118.3001
332.92        118.8386
333.37        119.3099
333.82        119.5835
334.27         119.774
334.72        119.9008
335.17        119.9675
335.63        120.0048
336.08        120.0722
336.53        120.2971
336.98         120.946
337.43          122.05
337.88        123.4915
338.34        125.0303
338.79        126.3855
339.24        127.3609
339.69        128.0235
340.14        128.3507
340.59        128.3445
341.05        128.1037
341.50        127.6473
341.95        127.2237
342.40        127.2108
342.85        127.6906
343.30        128.5692
343.75        129.6378
344.20        130.5198
344.66        131.0879
345.11        131.4303
345.56        131.6067
346.01        131.7298
346.46        131.8652
346.91        131.9862
347.36        132.1182
347.81        132.3253
348.26        132.6019
348.72        132.9078
349.17        133.2392
349.62        133.6199
350.07        134.0229
350.52        134.4617
350.97        134.7124
351.42        134.4254
351.87        133.5896
352.32        132.3402
352.77        131.1304
353.22        130.6223
353.67        130.9245
354.13        131.8317
354.58        132.8823
355.03        133.2508
355.48        132.7178
355.93        131.5273
356.38        130.1441
356.83        129.2692
357.28        129.0527
357.73        129.2527
358.18        129.4888
358.63        129.1646
359.08        128.1384
359.53        126.6382
359.98        124.9977
360.43         123.681
360.88        122.7963
361.33        122.1936
361.78        121.6461
362.23        120.8091
362.68        119.6166
363.13        118.2147
363.58        116.8115
364.03        115.7036
364.48        114.9504
364.93        114.4317
365.38        113.9935
365.83         113.403
366.28        112.5939
366.73        111.6506
367.18        110.6448
367.63        109.6799
368.08        108.7931
368.53        107.9462
368.98          107.14
369.43        106.3796
369.88        105.6595
370.33        104.9916
370.78        104.3456
371.23        103.6699
371.68        102.9546
372.13        102.2014
372.58        101.4617
373.03        100.8199
373.48        100.2778
373.93        99.79681
374.38        99.28115
374.83        98.58812
375.28        97.69466
375.72        96.63601
376.17        95.57172
376.62        94.62139
377.07        93.83679
377.52        93.21053
377.97        92.68474
378.42        92.17642
378.87        91.66573
379.32        91.14815
379.77        90.73687
380.22        90.59309
380.67        90.70624
381.11        91.04298
381.56        91.26463
382.01        90.91473
382.46        89.94624
382.91        88.57484
383.36        87.22019
383.81        86.45885
384.26        86.37461
384.71        86.75584
385.15        87.32893
385.60        87.61176
386.05        87.44537
386.50        86.97733
386.95        86.28212
387.40         85.4809
387.85        84.66967
388.29        83.78809
388.74        83.03799
389.19         82.4854
389.64        82.13289
390.09        81.94627
390.54        81.86198
390.98        81.74229
391.43        81.57881
391.88        81.38339
392.33        81.14849
392.78        80.84335
393.23        80.47102
393.67        80.07289
394.12        79.75023
394.57        79.32855
395.02        78.89581
395.47        78.81557
395.91        78.99269
396.36        78.88631
396.81        78.47691
397.26        78.04423
397.71        77.66508
398.15        77.36487
398.60        77.26035
399.05        77.11913
399.50        76.92584
399.95        77.06277
400.39        77.37134
400.84        76.83547
401.29        75.65635
401.74        75.28155
402.18        75.65338
402.63        75.34322
403.08        74.44718
403.53        74.08341
403.97        74.27371
404.42        74.45436
404.87         74.5034
405.32        74.41014
405.76        74.12346
406.21        73.80639
406.66        73.51849
407.11         73.1057
407.55        72.76252
408.00        72.99455
408.45        73.66356
408.90        74.06606
409.34        73.97025
409.79        73.38512
410.24        72.55953
410.68        72.06008
411.13        71.97763
411.58        72.00033
412.03         72.0045
412.47         71.9285
412.92        71.70943
413.37        71.40903
413.81        71.11745
414.26        71.03018
414.71        71.14925
415.15        71.43552
415.60        71.76302
416.05        71.99799
416.49        72.08964
416.94        72.06377
417.39        71.97482
417.83        71.89415
418.28        71.85322
418.73        71.82855
419.17        71.81407
419.62        71.80514
420.07        71.78922
420.51        71.75317
420.96        71.72939
421.41        71.67665
421.85        71.56617
422.30         71.5571
422.74        71.54922
423.19        71.32603
423.64        70.93975
424.08        70.82789
424.53        70.99323
424.98        71.09193
425.42        71.10612
425.87        71.32991
426.31        71.65228
426.76        71.47776
427.21        70.92288
427.65        70.71893
428.10        70.86372
428.54        70.93835
428.99        70.98769
429.44        70.87996
429.88        70.77145
430.33        71.52756
430.77        72.66831
431.22        72.82043
431.66        72.00993
432.11        71.13036
432.56        70.54524
433.00        70.66259
433.45        71.51477
433.89         72.2499
434.34         72.1786
434.78        73.28243
435.23        71.91408
435.67        70.45869
436.12        70.18002
436.57         70.3932
437.01        71.34863
437.46        71.80321
437.90        71.75315
438.35        70.69791
438.79        71.18763
439.24        71.13248
439.68        71.20573
440.13        71.66708
440.57        72.37244
441.02        72.14698
441.46        71.21652
441.91        71.74906
442.35        73.21104
442.80        72.97919
443.24         71.3965
443.69        71.39232
444.13        72.81658
444.58        73.35793
445.02        72.93016
445.47        72.76646
445.91        72.94997
446.36        73.09368
446.80        73.19267
447.24         73.3914
447.69        73.54588
448.13         73.6361
448.58        73.66528
449.02        73.58274
449.47        73.45219
449.91        73.37688
450.36        73.37865
450.80        73.32062
451.25        73.23478
451.69        73.19302
452.13        73.20939
452.58        73.22782
453.02        73.23337
453.47        73.23329
453.91        73.20908
454.36        73.16207
454.80        73.07323
455.24        72.86001
455.69        72.53189
456.13        72.24533
456.58        72.07245
457.02        71.60405
457.46          71.081
457.91        71.40127
458.35        72.23101
458.79         72.3114
459.24        71.63659
459.68        70.75005
460.13        69.95023
460.57         69.6294
461.01        69.96669
461.46        69.82553
461.90        70.21768
462.34        71.30926
462.79        70.79724
463.23        70.93147
463.68        70.88725
464.12        70.65422
464.56        70.19149
465.01        69.48743
465.45        68.74824
465.89        68.50426
466.34        68.66502
466.78        68.96514
467.22        69.35751
467.67        68.60356
468.11        68.76537
468.55        68.66029
468.99        68.82752
469.44        68.71253
469.88         68.3289
470.32        67.98509
470.77        67.73684
471.21        67.57057
471.65        67.49281
472.10        67.51429
472.54        67.59105
472.98        67.62611
473.42        67.58474
473.87        67.60875
474.31        67.61043
474.75        67.28882
475.20        66.77681
475.64        66.59946
476.08        66.79411
476.52        66.77318
476.97        66.47475
477.41        66.58363
477.85        67.17734
478.29        66.33559
478.74        66.64045
479.18        66.92786
479.62        66.77821
480.06        66.80336
480.50        66.64032
480.95        66.61027
481.39        66.70038
481.83        66.32751
482.27        66.17862
482.72        66.56712
483.16        66.16518
483.60        66.21095
484.04        66.23602
484.48        66.42835
484.93        66.58125
485.37        66.48292
485.81        65.74891
486.25        65.93217
486.69        67.47484
487.14        68.53082
487.58         66.9994
488.02        66.37976
488.46        65.59275
488.90        65.10159
489.34        66.58104
489.79        67.52651
490.23        67.00548
490.67        66.23236
491.11        65.24584
491.55        65.08434
491.99        65.63924
492.43        65.64558
492.88        65.08896
493.32        64.90319
493.76        65.11748
494.20        65.25851
494.64         65.2942
495.08        65.35858
495.52        65.42339
495.96        65.43881
496.41        65.37942
496.85        65.26383
497.29        65.04022
497.73        64.93255
498.17        64.22681
498.61        64.34242
499.05        64.90429
499.49        65.11222
499.93        64.72814
500.37        64.69764
500.82        64.97514
501.26        65.07494
501.70        64.95596
502.14        64.94648
502.58          65.127
503.02        64.76488
503.46        65.15031
503.90        65.23233
504.34         65.3213
504.78        65.27574
505.22         65.0823
505.66        64.78294
506.10        64.48146
506.54        64.27133
506.98         64.1664
507.42         64.3927
507.86        64.68853
508.30        64.44341
508.74        64.71855
509.18        64.61689
509.62        64.50835
510.06        64.40348
510.50        64.33038
510.94        64.26132
511.38        64.19431
511.82        64.16191
512.26        64.16589
512.70        64.20576
513.14        64.26975
513.58        64.33294
514.02        64.38509
514.46        64.42538
514.90        64.45688
515.34        64.48845
515.78        64.51833
516.22        64.53831
516.66        64.53612
517.10        64.49442
517.54        64.41367
517.98        64.30701
518.42         64.1898
518.86        64.08537
519.30        64.00278
519.74         63.9351
520.18        63.88912
520.62        63.87174
521.06        63.88201
521.50        63.92432
521.93        63.97307
522.37        63.96554
522.81        63.90167
523.25        63.79325
523.69         63.6954
524.13        63.69719
524.57        63.80736
525.01        63.98707
525.45        64.16535
525.89        64.22708
526.32        64.13923
526.76        63.96349
527.20        63.74192
527.64        63.54693
528.08        63.40894
528.52         63.3054
528.96        63.25843
529.40        63.30153
529.83        63.42614
530.27        63.62957
530.71        63.83451
531.15        63.92144
531.59        63.86564
532.03        63.69431
532.46        63.47842
532.90        63.37981
533.34        63.41998
533.78        63.51516
534.22        63.59656
534.66        63.63695
535.09        63.56794
535.53         63.2839
535.97        62.87071
536.41        62.62355
536.85        62.58489
537.28        62.61575
537.72        62.69303
538.16        62.82629
538.60        62.99093
539.04        63.18327
539.47        63.35155
539.91        63.45752
540.35        63.47773
540.79        63.41872
541.22        63.32404
541.66        63.29052
542.10        63.32991
542.54        63.41764
542.97        63.49067
543.41        63.47821
543.85        63.36038
544.29        63.18006
544.72        62.98325
545.16        62.87469
545.60        62.86721
546.04         62.9373
546.47        63.06219
546.91        63.20415
547.35        63.33727
547.79        63.44901
548.22        63.52679
548.66        63.58325
549.10        63.66254
549.53        63.63319
549.97        63.52182
550.41        63.33216
550.84        63.14198
551.28        63.08183
551.72        63.12066
552.15        63.19678
552.59        63.33667
553.03        63.03003
553.46        63.31827
553.90        63.27974
554.34        63.21602
554.77        63.11051
555.21          63.021
555.65        63.02685
556.08         63.1193
556.52        63.23251
556.96        63.30331
557.39         63.3935
557.83        63.43684
558.27        63.13673
558.70        62.56227
559.14        62.32066
559.57        62.39565
560.01        62.44218
560.45        62.44189
560.88         62.5256
561.32         62.6949
561.75        62.94426
562.19        63.21123
562.63        63.13147
563.06        62.80368
563.50        62.84028
563.93        63.13288
564.37        63.18246
564.80        63.00469
565.24        62.77733
565.68        62.42586
566.11        63.04988
566.55        62.40319
566.98        62.34486
567.42        62.31157
567.85        62.52401
568.29         62.9439
568.72        63.30502
569.16        63.64718
569.60        63.91594
570.03        63.97891
570.47        64.22988
570.90        64.68568
571.34        63.68655
571.77        64.36584
572.21        64.37836
572.64        64.37273
573.08        64.93858
573.51        63.71197
573.95         63.6443
574.38        64.19069
574.82        64.28287
575.25         64.0041
575.69        64.31815
576.12        64.36622
576.56        63.59016
576.99        63.62381
577.42        64.12383
577.86         64.3556
578.29         64.9388
578.73         64.9952
579.16        64.79708
579.60        64.23805
580.03        64.24615
580.47        63.93394
580.90        65.01723
581.33        64.84447
581.77        65.05499
582.20        64.90334
582.64        65.50648
583.07        65.08454
583.51        64.72414
583.94         64.1805
584.37        63.97561
584.81        64.27809
585.24        64.46825
585.68        64.37891
586.11        64.84821
586.54        64.43392
586.98        63.86857
587.41        63.53988
587.85        63.86109
588.28        63.95499
588.71        63.87953
589.15         63.5683
589.58        63.67218
590.01         63.0525
590.45        63.42666
590.88        64.31395
591.31        64.21538
591.75        63.30597
592.18        62.71081
592.61        62.66924
593.05        63.60008
593.48        64.05445
593.91        64.28681
594.35        64.22897
594.78        63.48017
595.21        62.81033
595.65         63.0284
596.08        64.26635
596.51        64.13684
596.94         63.3354
597.38         62.9305
597.81        63.15936
598.24        63.76135
598.68        63.34643
599.11        63.27821
599.54        64.38579
599.97        63.90797
600.41        63.78658
600.84        63.22848
601.27        63.67747
601.70        63.45912
602.14        63.85117
602.57        63.59745
603.00        63.23022
603.43         62.7697
603.87         63.4996
604.30        63.69691
604.73        63.82365
605.16        62.89957
605.60         63.1134
606.03         62.8442
606.46        62.73541
606.89        62.68554
607.32        63.31056
607.76        62.92323
608.19        63.02325
608.62        63.17489
609.05        62.81677
609.48        62.79182
609.92        63.62164
610.35        63.24591
610.78        62.98328
611.21         62.8214
611.64         62.8588
612.07        63.03753
612.50        62.96279
612.94         62.8847
613.37        62.62195
613.80        62.95399
614.23        62.22943
614.66        62.19443
615.09        62.38246
615.52        62.63517
615.96        62.80545
616.39        62.95097
616.82        63.10408
617.25        62.43856
617.68        62.39293
618.11        62.37373
618.54        62.71175
618.97        62.79032
619.40        62.59318
619.84        62.51907
620.27        62.44569
620.70        62.45663
621.13        62.44086
621.56        61.97019
621.99        61.19117
622.42        61.03022
622.85         61.5259
623.28        61.48443
623.71        61.53867
624.14        61.74062
624.57        61.95945
625.00        61.62097
625.43        61.97134
625.86        61.87297
626.29        61.76734
626.72        61.48814
627.15        61.71304
627.58        61.72725
628.01        61.60163
628.44        61.91356
628.87        61.62412
629.30         61.4804
629.73         61.1846
630.16        61.57438
630.59        61.36677
631.02        61.59212
631.45        61.81429
631.88         61.9403
632.31        61.92958
632.74        61.82811
633.17        61.67848
633.60        61.51722
634.03        61.37315
634.46        61.23236
634.89        61.10481
635.32         61.0219
635.75        60.99195
636.18        60.94751
636.61        60.90559
637.04        60.92764
637.47        61.01121
637.89        61.12523
638.32         61.2145
638.75        61.25187
639.18        61.22531
639.61        61.14363
640.04          61.041
640.47        60.97356
640.90        60.95819
641.33        60.98494
641.76        61.02993
642.18        61.05959
642.61        61.04383
643.04        60.99931
643.47        60.95406
643.90        60.95185
644.33          60.998
644.76        61.07833
645.18         61.1468
645.61        61.11258
646.04        60.97121
646.47        60.76044
646.90         60.5515
647.33         60.4463
647.75          60.443
648.18        60.56672
648.61        60.79933
649.04        60.85389
649.47        60.65639
649.89        61.26008
650.32        61.00134
650.75        60.93304
651.18        60.67776
651.61        60.64312
652.03        60.87855
652.46         61.1694
652.89        61.38538
653.32        61.42119
653.74        61.48219
654.17        60.69934
654.60        61.35847
655.03        61.23869
655.46        60.76164
655.88         60.7072
656.31        63.57684
656.74        67.22945
657.16        67.59205
657.59        67.58704
658.02         62.9339
658.45        62.17107
658.87         61.5755
659.30         61.4251
659.73        61.16285
660.15        62.28289
660.58        61.24781
661.01        61.09112
661.44        60.85203
661.86        60.73453
662.29        60.62255
662.72        60.92335
663.14        60.49092
663.57        60.36536
664.00        60.31713
664.42        60.46027
664.85        60.79674
665.27        61.25406
665.70        61.65902
666.13         61.8256
666.55        61.70874
666.98        61.28596
667.41         60.6922
667.83        60.55428
668.26        60.31115
668.69        60.40437
669.11          60.578
669.54           60.72
669.96        60.79128
670.39        60.82755
670.82        60.86134
671.24        60.91075
671.67        60.98039
672.09        61.04007
672.52        61.09039
672.94         61.1032
673.37        61.08117
673.80        61.02572
674.22        60.97109
674.65        60.93798
675.07        60.95009
675.50        60.99105
675.92        61.02869
676.35        60.99773
676.77        60.89009
677.20        60.72952
677.62          60.583
678.05        60.51939
678.47        60.54873
678.90        60.71365
679.32        60.96559
679.75        60.88955
680.17        61.01333
680.60        60.92003
681.02        60.82154
681.45        60.77511
681.87        60.81657
682.30        60.90316
682.72        61.00823
683.15        61.08341
683.57        61.11788
684.00        61.08106
684.42        61.02947
684.85        61.09203
685.27        61.27485
685.70        61.51839
686.12         61.7179
686.54        61.83048
686.97        61.84277
687.39        61.60514
687.82        61.14598
688.24           61.38
688.66         61.1145
689.09        61.03483
689.51        60.82629
689.94        60.76064
690.36        60.84492
690.78        60.93404
691.21        61.02994
691.63        61.15533
692.06        61.29919
692.48          61.456
692.90        61.56159
693.33        61.52381
693.75        61.33359
694.17         60.9973
694.60        60.65936
695.02        60.55602
695.44        60.70666
695.87        61.06705
696.29        61.48215
696.71        61.46452
697.14        61.08626
697.56        60.97461
697.98        61.16883
698.41        61.23785
698.83        61.17739
699.25        61.29883
699.68        61.51128
700.10        61.56696
700.52        61.41745
700.94        61.15152
701.37        60.88386
701.79        60.80185
702.21        60.93792
702.64        61.21359
703.06        61.52117
703.48        61.67035
703.90         61.6105
704.33        61.40859
704.75        61.14059
705.17        60.91982
705.59        60.79847
706.01        60.74391
706.44        60.76535
706.86        60.90655
707.28        61.14397
707.70        61.42933
708.12        61.71758
708.55        61.99158
708.97        62.17469
709.39        62.17356
709.81        61.84061
710.23        61.69255
710.66        61.71241
711.08        61.75088
711.50        61.74363
711.92        61.67561
712.34        61.53889
712.76        61.35874
713.19        61.17262
713.61        61.07219
714.03        61.06973
714.45        61.14454
714.87        61.28404
715.29        61.47038
715.71        61.68321
716.13        61.91111
716.56        62.10777
716.98        62.27992
717.40        62.38255
717.82        62.41789
718.24        62.37622
718.66        62.24778
719.08        62.05577
719.50        61.83016
719.92        61.63053
720.34        61.54188
720.76        61.58042
721.19        61.69841
721.61        61.89474
722.03        62.11654
722.45        62.32547
722.87        62.52135
723.29        62.63459
723.71         62.5584
724.13        62.28914
724.55        61.87154
724.97        61.42544
725.39        61.15337
725.81        61.11245
726.23        61.23169
726.65        61.43455
727.07         61.7272
727.49        61.84237
727.91         61.9883
728.33        62.11536
728.75        62.25732
729.17        62.41443
729.59        62.55722
730.01        62.66521
730.43        62.71479
730.85        62.69976
731.27        62.63054
731.69        62.52657
732.10        62.41339
732.52        62.30257
732.94        62.20975
733.36        62.15283
733.78        62.03085
734.20        61.83469
734.62        61.83456
735.04        62.11698
735.46        61.62355
735.88        62.20065
736.30        62.42181
736.72        62.78124
737.13        63.07375
737.55        63.20073
737.97        63.33287
738.39        63.40893
738.81         63.0558
739.23        62.45203
739.65        62.44604
740.06        62.93171
740.48        63.09117
740.90        62.86343
741.32        62.73386
741.74        62.75595
742.16        62.76803
742.57        62.78213
742.99        62.83057
743.41        62.87541
743.83        62.84072
744.25         62.7168
744.67        62.51067
745.08        62.32093
745.50        62.28759
745.92        62.44338
746.34        62.73889
746.75        63.04094
747.17        63.12302
747.59        62.94429
748.01        62.57824
748.42        62.17076
748.84        61.95488
749.26        61.98859
749.68        62.19485
750.09        62.46407
750.51         62.6174
750.93        62.60382
751.35        62.50656
751.76        62.35389
752.18        62.17723
752.60        61.99355
753.01        61.82803
753.43         61.6915
753.85        61.58407
754.27        61.51561
754.68        61.67797
755.10        61.74606
755.52        61.93145
755.93        62.10853
756.35        62.27028
756.77         62.4668
757.18        62.61855
757.60        62.71894
758.02        63.08827
758.43        63.62389
758.85         62.8218
759.26        62.98018
759.68        62.15071
760.10         62.5119
760.51         62.7014
760.93         63.0939
761.34        63.02695
761.76        63.33995
762.18        63.31695
762.59        63.26012
763.01        63.16459
763.42        63.10918
763.84        63.03011
764.26        62.96208
764.67         62.8954
765.09        62.86572
765.50          62.897
765.92        62.97047
766.33        62.86187
766.75        62.53003
767.16        62.34093
767.58         62.2955
768.00        62.05389
768.41        61.75772
768.83        62.04575
769.24        62.73058
769.66        62.97417
770.07        62.73654
770.49        62.38293
770.90        62.11668
771.32        62.40707
771.73        63.11848
772.15        63.35521
772.56        63.06898
772.97        62.78901
773.39        62.63614
773.80        62.55785
774.22        62.57104
774.63        62.74181
775.05        62.95421
775.46         63.0821
775.88        63.06247
776.29        62.95262
776.70         62.8284
777.12        62.83931
777.53        63.01984
777.95        63.27155
778.36        63.52582
778.77        63.63742
779.19        63.59377
779.60         63.4752
780.02        63.28592
780.43        63.13942
780.84        63.09586
781.26        62.75881
781.67        62.33608
782.09        62.98593
782.50        64.33695
782.91        64.40897
783.33        63.29734
783.74        62.89004
784.15        63.27323
784.57        63.33582
784.98        63.09029
785.39        63.06874
785.81        63.28653
786.22        63.60694
786.63        63.93969
787.04        64.13767
787.46        64.16853
787.87        64.05666
788.28        63.90719
788.70        63.82402
789.11        63.80914
789.52        63.96006
789.93        64.16293
790.35        63.96926
790.76        63.47521
791.17        63.31138
791.58        63.49913
792.00        63.49327
792.41         63.2909
792.82         63.3475
793.23        63.61806
793.65         63.5056
794.06        63.16259
794.47        63.45906
794.88        64.20981
795.29        64.45457
795.71        64.11259
796.12        63.74409
796.53         63.4884
796.94        63.30242
797.35        63.28868
797.76        63.62235
798.18        64.14699
798.59         64.4754
799.00        64.50954
799.41        64.41286
799.82        64.27474
800.23        64.19863
800.64        64.22322
801.06        64.27639
801.47        64.34848
801.88        64.34691
802.29        64.24555
802.70        64.07912
803.11        63.88218
803.52        63.70226
803.93        63.58013
804.34        63.51911
804.75        63.51838
805.17        63.63684
805.58        63.91426
805.99        64.07474
806.40         64.1527
806.81        64.77405
807.22        65.65347
807.63        65.47623
808.04        64.42065
808.45        63.92935
808.86        64.12499
809.27        64.23225
809.68        64.15141
810.09        64.08794
810.50        64.02235
810.91        63.90901
811.32        63.82789
811.73        63.89795
812.14        64.13354
812.55        64.49973
812.96        64.87318
813.37        65.02022
813.78        64.87814
814.19        64.53294
814.60        64.11565
815.01        63.80298
815.42        63.63988
815.83        63.57771
816.24        63.58996
816.65        63.62284
817.05        63.66275
817.46        63.71839
817.87        63.79738
818.28        63.85856
818.69        63.89774
819.10        63.89867
819.51        63.93262
819.92         64.1349
820.33        64.51014
820.74        64.99721
821.14        65.43846
821.55        65.58083
821.96        65.37813
822.37        64.91969
822.78        64.35732
823.19          63.952
823.60        63.79987
824.00        63.85648
824.41        64.03391
824.82        64.26871
825.23        64.50161
825.64        64.74937
826.04        64.96664
826.45        65.03897
826.86        64.96199
827.27        64.76479
827.68        64.49361
828.08        64.27003
828.49        64.09118
828.90        63.94302
829.31        63.87945
829.72        63.98088
830.12        64.26527
830.53        64.66634
830.94        65.02039
831.35        64.99722
831.75        64.55293
832.16        63.77908
832.57        62.95787
832.97        62.52174
833.38        62.57829
833.79        62.97217
834.20        63.54543
834.60        64.04218
835.01        64.37112
835.42        64.64987
835.82        64.84678
836.23        64.83195
836.64        64.63742
837.04        64.25458
837.45        63.93144
837.86         64.1432
838.26        64.98704
838.67        66.29209
839.08        67.62297
839.48        68.14473
839.89        67.63518
840.29        66.38646
840.70        64.99583
841.11        64.15524
841.51        64.04957
841.92        64.44961
842.33        65.13506
842.73        65.71642
843.14        65.93909
843.54        65.97868
843.95        65.90935
844.35        65.89051
844.76         65.9512
845.17        66.01768
845.57        66.03927
845.98        65.92769
846.38         65.6942
846.79        65.38399
847.19        65.08393
847.60        64.90031
848.00        64.87109
848.41        64.93409
848.81        65.06815
849.22        65.15849
849.62        65.20489
850.03         65.2264
850.43        65.22131
850.84        65.12489
851.24        64.97742
851.65        64.72872
852.05        64.55708
852.46         64.6702
852.86        65.09644
853.27        65.75354
853.67        66.35171
854.07        66.59831
854.48         66.4219
854.88        65.93098
855.29        65.28327
855.69        64.89848
856.10         64.8419
856.50         65.0652
856.90        65.37025
857.31        65.44026
857.71        65.23648
858.12        64.80988
858.52        64.32937
858.92        63.96169
859.33        63.76125
859.73         63.7147
860.13        63.74371
860.54        63.74339
860.94        63.71833
861.34        63.69138
861.75        63.69697
862.15        63.82552
862.55        64.06522
862.96         64.3325
863.36        64.60484
863.76        64.77723
864.17        64.80335
864.57        64.74901
864.97        64.56815
865.38        64.20049
865.78        63.68652
866.18         63.0387
866.58        62.44032
866.99        62.20858
867.39        62.43633
867.79        63.03249
868.19        63.73584
868.60        64.11783
869.00        64.09667
869.40        63.73713
869.80        63.25855
870.21        63.08993
870.61        63.40441
871.01        64.00826
871.41         64.5695
871.81        64.62824
872.22        64.10214
872.62        63.13237
873.02        62.07331
873.42        61.52339
873.82        61.65096
874.22        62.28143
874.63        63.03135
875.03        63.30536
875.43        62.95391
875.83         62.1856
876.23        61.35342
876.63        60.99726
877.03          61.246
877.44        61.88075
877.84        62.65411
878.24        63.17288
878.64        63.25381
879.04        62.89417
879.44        62.33199
879.84        62.03886
880.24        62.08898
880.64        62.28106
881.04        62.43252
881.44        62.29229
881.84         61.8124
882.24        61.13179
882.65        60.43215
883.05        59.96632
883.45        59.82014
883.85         59.9207
884.25        60.22518
884.65        60.65052
885.05         61.1292
885.45        61.66013
885.85        62.16122
886.25        62.52187
886.65        62.71371
887.05        62.73009
887.45        62.63572
887.85        62.55978
888.25        62.53849
888.65        62.55616
889.04        62.52706
889.44        62.33797
889.84        61.96764
890.24        61.46777
890.64         60.9882
891.04        60.76877
891.44        60.85714
891.84        61.17612
892.24        61.54536
892.64        61.68422
893.04        61.54756
893.44        61.24731
893.83        60.94983
894.23        60.88046
894.63        61.11885
895.03        61.54509
895.43        62.09565
895.83        62.67712
896.23        63.20509
896.63        63.68103
897.02        63.94976
897.42        63.79607
897.82        63.21308
898.22        62.31252
898.62        61.33101
899.01         60.6172
899.41        60.28598
899.81        60.24943
900.21        60.41875
900.61        60.63104
901.00        60.81233
901.40        60.99414
901.80        61.16336
902.20         61.2908
902.59        61.38374
902.99          61.435
903.39        61.43557
903.79        61.38885
904.18        61.29509
904.58        61.14526
904.98        61.05455
905.38        61.20483
905.77        61.60952
906.17        62.23717
906.57         62.8139
906.96        62.88103
907.36        62.34816
907.76          61.384
908.15        60.41453
908.55        60.09669
908.95        60.58263
909.34        61.66652
909.74        62.91972
910.14        63.70295
910.53        63.78759
910.93         63.3958
911.33        62.70461
911.72        61.98244
912.12        61.41218
912.52        60.91014
912.91         60.5363
913.31        60.40769
913.70        60.52995
914.10        60.86897
914.49        61.36625
914.89        61.81153
915.29        62.14271
915.68        62.39464
916.08        62.49947
916.47        62.43195
916.87        62.22056
917.26        61.84586
917.66        61.49128
918.05        61.32214
918.45        61.38067
918.84        61.67557
919.24        62.02194
919.64        62.21035
920.03        62.19346
920.42        61.99682
920.82        61.82043
921.21        61.92968
921.61        62.35238
922.00         63.0205
922.40        63.67481
922.79        63.99501
923.19        63.85918
923.58        63.41477
923.98        62.84724
924.37        62.36878
924.77        62.06667
925.16        61.83216
925.55        61.69857
925.95        61.70573
926.34         61.8472
926.74        62.10712
927.13        62.29558
927.52        62.03325
927.92        61.33075
928.31        60.32034
928.70        59.34174
929.10        58.89034
929.49        59.06353
929.89        59.65859
930.28        60.55862
930.67        61.43911
931.07        62.11856
931.46        62.74557
931.85        63.11736
932.24        62.96973
932.64        62.33965
933.03        61.25474
933.42          60.207
933.82        59.92452
934.21        60.53611
934.60        61.90932
934.99        63.45834
935.39        64.10693
935.78        63.60384
936.17        62.17516
936.56        60.51883
936.96         59.7336
937.35        60.08151
937.74         61.2376
938.13        62.52868
938.53        62.90313
938.92          62.137
939.31        60.62563
939.70        59.02021
940.09         58.2434
940.49        58.47972
940.88        59.46632
941.27        60.75603
941.66        61.54512
942.05        61.57134
942.44        61.10686
942.84        60.50356
943.23        60.29198
943.62        60.62376
944.01        61.26955
944.40        62.04176
944.79        62.67585
945.18        63.04251
945.57        63.21362
945.97        63.12538
946.36        62.76994
946.75        62.15417
947.14        61.34488
947.53         60.4828
947.92        59.75531
948.31        59.23348
948.70        58.91245
949.09        58.81385
949.48        58.95147
949.87        59.29836
950.26        59.81149
950.65        60.41426
951.04        60.98468
951.43        61.44532
951.82        61.78354
952.21         61.9174
952.60        61.74784
952.99        61.30473
953.38        60.66415
953.77        60.00658
954.16        59.61231
954.55        59.54833
954.94        59.72722
955.33         60.0785
955.72         60.4506
956.11         60.7582
956.50         61.0526
956.89        61.19159
957.28        60.94754
957.66         60.3127
958.05        59.40331
958.44        58.53919
958.83        58.19407
959.22        58.44451
959.61        59.15696
960.00         60.0426
960.39        60.54729
960.78        60.47542
961.16          59.976
961.55        59.30623
961.94        58.77704
962.33        58.49429
962.72        58.39378
963.11        58.39019
963.49        58.36932
963.88        58.23902
964.27         58.0582
964.66        58.01438
965.04         58.3999
965.43        59.19655
965.82        60.35102
966.21        61.43923
966.60        61.65955
966.98         60.7965
967.37        59.19236
967.76        57.49663
968.15        56.52586
968.53        56.43733
968.92        57.03376
969.31        57.91492
969.69          58.288
970.08        57.84829
970.47        56.90195
970.86        55.98535
971.24         55.8395
971.63        56.61652
972.02        58.09768
972.40        59.84218
972.79        60.73853
973.17        60.48993
973.56        59.46305
973.95        58.24445
974.33          57.605
974.72         57.7182
975.11        58.29951
975.49        59.12867
975.88        59.72896
976.26        59.93789
976.65        59.89179
977.04        59.59597
977.42         59.0049
977.81        58.14519
978.19        57.01574
978.58        56.00829
978.96        55.72137
979.35        56.25165
979.74        57.47051
980.12        58.95718
980.51        59.70109
980.89         59.5434
981.28        58.75992
981.66        57.83319
982.05        57.44033
982.43        57.76249
982.82        58.54057
983.20        59.70615
983.59        61.03233
983.97        62.40509
984.35        63.85969
984.74         64.9718
985.12        65.27367
985.51        64.63563
985.89        63.22104
986.28        61.66674
986.66        60.87291
987.04        61.11356
987.43        62.15932
987.81        63.56112
988.20        64.29892
988.58        64.05896
988.96         63.0848
989.35        61.86679
989.73        61.10923
990.12        60.96011
990.50        61.23182
990.88        61.53587
991.27        61.23856
991.65        60.23717
992.03        58.84162
992.42        57.58474
992.80        57.14095
993.18        57.65158
993.56        58.89296
993.95        60.41234
994.33        61.51066
994.71        61.78764
995.10        61.54203
995.48        60.99942
995.86        60.60072
996.24        60.48016
996.63        60.31833
997.01        60.33195
997.39        60.66911
997.77        61.27654
998.15         62.1876
998.54        62.85551
998.92        62.32224
999.30        60.61662
999.68        58.12889
1000.06        55.79874
1000.45        54.92904
1000.83        55.87962
1001.21        58.35396
1001.59        61.68488
1001.97        64.14482
1002.35        64.94508
1002.73        64.56736
1003.12         63.7059
1003.50        63.19389
1003.88          63.359
1004.26        63.72465
1004.64        64.31595
1005.02        65.18469
1005.40        66.20414
1005.78         67.5994
1006.16        68.49114
1006.54        67.43689
1006.92        64.46374
1007.30        60.13711
1007.69        56.26337
1008.07         55.2983
1008.45        57.88172
1008.83        63.48294
1009.21         70.4487
1009.59        74.61423
1009.97        74.01593
1010.35        69.89362
1010.73         64.1049
1011.11        59.34843
1011.49        56.54162
1011.86        54.96874
1012.24        54.46743
1012.62        54.87594
1013.00        56.03063
1013.38        58.12442
1013.76        60.92436
1014.14        63.42271
1014.52        64.92641
1014.90        65.37482
1015.28        64.83662
1015.66        63.66899
1016.04        62.10384
1016.41        60.11186
1016.79        58.09351
1017.17        56.89988
1017.55         56.7681
1017.93        57.45962
1018.31        58.58207
1018.69        59.51014
1019.06        60.06495
1019.44        60.45707
1019.82        60.42719
1020.20        59.54732
1020.58        57.85926
1020.95         55.4909
1021.33        53.44078
1021.71        52.72447
1022.09        53.45771
1022.46        55.70278
1022.84        58.51058
1023.22        59.43622
1023.60        57.64037
1023.97        53.78674
1024.35        50.31155
1024.73        50.03576
