SpectraSmart Spectrum 2.9.0.0
--------- Device Information -----------
Spectrum Name :  反射率_0
Saving Time :  2024/04/26 23:18:05
Spectro-Module Model Name : SE2030-DUVN
Spectro-Module Serial Number : OS361AC55029948
Wavelength Start : 200
Wavelength End : 1025
Wavelength Unit : Wavelength(nm)
Spectrum Unit : Reflectance(%)
-----------Spectrum Setting ------------
Integration Time : 20ms
Average : 10
Boxcar : 0
Background removal :  enabled
linearity correction :  enabled
SC :  disabled
Intensity correction :  disabled
DWT denoise :  enabled
savitzky-golay :  disabled
FFT :  disabled
Running average :  disabled
Kalman :  disabled
High pass :  disabled
---------------BEGIN--------------------
Wavelength(nm)             Reflectance(%)
200.29               0
200.75        53.35878
201.21        47.75869
201.67        43.55997
202.13        42.38583
202.58        44.11678
203.04        48.89701
203.50        56.35184
203.96        63.38361
204.42        67.27952
204.88         67.9425
205.34        65.62035
205.80        62.38343
206.26        59.49748
206.72        56.46975
207.18        54.01317
207.64        52.50787
208.10        51.74497
208.55        52.24657
209.01        53.13852
209.47        52.53798
209.93        50.41493
210.39        48.25851
210.85        47.42262
211.31        48.94156
211.77         53.7034
212.23        65.17201
212.69        94.59732
213.14        146.8081
213.60        148.5693
214.06        114.9834
214.52        91.53149
214.98        81.47057
215.44        77.83923
215.90        75.97894
216.36        75.23563
216.81        75.19621
217.27        75.86904
217.73        78.84093
218.19        82.33271
218.65        79.28827
219.11         70.2271
219.57        60.65606
220.02        55.44019
220.48          57.085
220.94         64.9677
221.40        80.26053
221.86        101.6872
222.32        113.1079
222.77        102.5255
223.23        81.55941
223.69        62.71393
224.15        52.52629
224.61        49.09119
225.06        48.90738
225.52         49.9487
225.98        50.08761
226.44        49.05469
226.90        47.56078
227.36        46.23124
227.81        45.99574
228.27        46.97323
228.73         48.3552
229.19         49.5169
229.65        49.85294
230.10        49.31588
230.56        48.30677
231.02        46.90969
231.48        45.32913
231.93        43.77663
232.39        42.43478
232.85        41.62061
233.31         41.8441
233.77        43.01337
234.22        44.93416
234.68        46.98826
235.14        48.27501
235.60        48.55178
236.05        48.10666
236.51        47.17078
236.97        46.35474
237.43        46.00601
237.88        45.98283
238.34        46.54333
238.80        48.36376
239.26         51.8018
239.71        57.65131
240.17        65.23389
240.63        72.00964
241.08         76.1814
241.54        76.79064
242.00        76.34982
242.46        81.22722
242.91        95.96563
243.37        123.2078
243.83        164.1535
244.28        200.8093
244.74        205.4108
245.20        177.5241
245.66        139.3912
246.11        111.3384
246.57        94.90897
247.03         84.1634
247.48         77.5346
247.94        74.10414
248.40        73.29167
248.85        74.77469
249.31        76.91444
249.77        77.79556
250.22          77.095
250.68        74.22658
251.14        70.07838
251.59        68.36771
252.05        70.99244
252.51         76.8306
252.96        80.60857
253.42        77.91959
253.88        70.18047
254.33        60.11595
254.79        53.26822
255.25        54.22037
255.70        62.12391
256.16        74.46986
256.62        85.74648
257.07        87.65915
257.53        81.83604
257.99        73.45815
258.44        66.37174
258.90        63.75608
259.35         64.3056
259.81        66.59669
260.27        68.94632
260.72        69.42648
261.18        68.17126
261.63        65.82519
262.09        63.56329
262.55        62.00101
263.00        61.06202
263.46        60.59689
263.91         59.9805
264.37        58.81218
264.83         57.0757
265.28        54.99975
265.74        53.23088
266.19        52.23423
266.65        52.08882
267.11        52.46516
267.56        52.90508
268.02        52.69731
268.47        51.67804
268.93        50.13859
269.38         48.3816
269.84        46.93186
270.30        45.91682
270.75        45.14631
271.21        44.56618
271.66        44.03631
272.12        43.48854
272.57        42.94914
273.03        42.31649
273.48        41.40213
273.94        40.26075
274.39        38.93729
274.85        37.67028
275.31        36.64872
275.76        35.89211
276.22        35.37765
276.67        34.98883
277.13        34.65034
277.58        34.26972
278.04        33.88438
278.49        33.45188
278.95        33.03148
279.40        32.57635
279.86        32.14269
280.31        31.63474
280.77        31.03304
281.22        30.32045
281.68        29.59382
282.13        28.94395
282.59        28.57742
283.04        28.47928
283.50        28.60292
283.95        28.80406
284.41        28.86346
284.86        28.72278
285.32        28.47565
285.77        28.21097
286.22        28.12157
286.68        28.23871
287.13        28.45372
287.59        28.70082
288.04        28.83605
288.50        28.84657
288.95        28.75844
289.41        28.62462
289.86        28.44819
290.32         28.2908
290.77        28.14651
291.22        28.07988
291.68        28.16977
292.13        28.42982
292.59        28.87452
293.04        29.47928
293.50         30.2144
293.95         31.0546
294.40        32.00639
294.86        33.07338
295.31        34.25277
295.77        35.54192
296.22        36.91048
296.68        38.34145
297.13        39.79849
297.58        41.28333
298.04        42.80975
298.49        44.38374
298.95        46.03565
299.40        47.75257
299.85        49.51978
300.31        51.32986
300.76        53.15003
301.21        54.97662
301.67        56.83256
302.12        58.66674
302.58        60.49264
303.03        62.26593
303.48        64.01106
303.94        65.78275
304.39        67.59509
304.84        69.47977
305.30         71.4405
305.75        73.38824
306.20        75.27658
306.66        77.10564
307.11        78.85251
307.57         80.5656
308.02        82.21074
308.47        83.80891
308.93        85.35457
309.38        86.84398
309.83        88.39486
310.29        90.02113
310.74        91.68741
311.19        93.25488
311.65        94.46678
312.10        95.25701
312.55        95.70309
313.00        96.03745
313.46        96.62759
313.91        97.53105
314.36        98.66936
314.82        99.82919
315.27        100.6741
315.72        101.0966
316.18        101.2361
316.63        101.2416
317.08        101.3929
317.53        101.7748
317.99        102.2945
318.44        102.8726
318.89        103.3535
319.35        103.6797
319.80        103.8989
320.25        104.0721
320.70        104.2926
321.16        104.5814
321.61        104.9489
322.06        105.2962
322.51        105.4785
322.97        105.4607
323.42        105.2956
323.87        105.1767
324.32        105.4364
324.78        106.1001
325.23        107.1474
325.68        108.2105
326.13        108.6794
326.59        108.4084
327.04        107.6081
327.49        106.7077
327.94        106.4217
328.39         106.926
328.85        107.9762
329.30        109.3122
329.75        110.2027
330.20        110.4063
330.66        110.1114
331.11        109.6567
331.56        109.5065
332.01        109.8153
332.46         110.411
332.92        111.0764
333.37        111.6222
333.82        111.9016
334.27        112.0432
334.72        112.1242
335.17        112.2406
335.63        112.4393
336.08        112.7449
336.53         113.187
336.98        113.8723
337.43        114.7929
337.88        115.8704
338.34        116.9882
338.79        118.0684
339.24         118.981
339.69        119.7488
340.14        120.2294
340.59        120.2219
341.05        119.7836
341.50        119.0115
341.95        118.2873
342.40        118.1873
342.85        118.8338
343.30        120.0596
343.75        121.5395
344.20          122.71
344.66        123.3844
345.11        123.7036
345.56        123.7993
346.01        123.9007
346.46        124.1042
346.91        124.3366
347.36         124.583
347.81        124.8502
348.26        125.1199
348.72        125.3851
349.17        125.6595
349.62        125.9862
350.07        126.3479
350.52        126.7448
350.97         126.974
351.42        126.7214
351.87        125.9763
352.32        124.8683
352.77        123.7917
353.22         123.319
353.67        123.5496
354.13        124.3067
354.58        125.2145
355.03        125.5925
355.48        125.2528
355.93        124.3904
356.38        123.3687
356.83         122.741
357.28         122.619
357.73        122.7936
358.18        122.9622
358.63        122.6554
359.08        121.7631
359.53        120.4802
359.98        119.0473
360.43        117.7907
360.88        116.8036
361.33        115.9896
361.78        115.2547
362.23        114.4613
362.68        113.5796
363.13        112.6788
363.58        111.8136
364.03         111.047
364.48        110.3793
364.93         109.756
365.38        109.1371
365.83        108.4785
366.28        107.7673
366.73        107.0296
367.18        106.2544
367.63        105.4167
368.08        104.5287
368.53        103.6092
368.98        102.7293
369.43        101.9984
369.88        101.4352
370.33        101.0026
370.78        100.6245
371.23        100.1775
371.68        99.61594
372.13        98.95719
372.58        98.24004
373.03        97.52965
373.48        96.84135
373.93        96.15562
374.38        95.42999
374.83        94.60722
375.28        93.69345
375.72        92.70988
376.17        91.79491
376.62         91.0333
377.07        90.45657
377.52          90.058
377.97        89.75779
378.42        89.43665
378.87           89.06
379.32        88.62134
379.77        88.24604
380.22        88.12396
380.67        88.25246
381.11        88.58792
381.56        88.79041
382.01         88.3997
382.46        87.36906
382.91         85.9245
383.36        84.48544
383.81        83.61735
384.26        83.41193
384.71        83.67867
385.15        84.16093
385.60        84.40402
386.05        84.26109
386.50        83.86436
386.95        83.30634
387.40        82.73557
387.85        82.22163
388.29        81.66727
388.74        81.19632
389.19        80.77625
389.64        80.40466
390.09        80.09801
390.54          79.838
390.98        79.56481
391.43        79.29768
391.88        79.02424
392.33        78.77813
392.78        78.53327
393.23        78.27346
393.67        78.17841
394.12        78.21675
394.57        77.69136
395.02        76.82603
395.47        76.77743
395.91        77.41928
396.36         77.4847
396.81        76.91832
397.26        76.43111
397.71        76.11205
398.15        75.77103
398.60        75.52168
399.05        75.31953
399.50         75.1412
399.95        75.06144
400.39        75.05136
400.84        74.78895
401.29        74.33984
401.74        74.21841
402.18        74.35106
402.63        74.01221
403.08        73.33846
403.53        73.08704
403.97        73.28368
404.42        73.52357
404.87        73.68745
405.32          73.698
405.76        73.49959
406.21        73.28336
406.66        73.05067
407.11        72.58146
407.55        72.07873
408.00         71.9837
408.45        72.28455
408.90        72.75222
409.34         73.0836
409.79        72.64333
410.24        71.68912
410.68        71.28004
411.13        71.49891
411.58         71.7344
412.03        71.81588
412.47        71.75794
412.92        71.49314
413.37        71.06179
413.81        70.61992
414.26        70.46087
414.71         70.6069
415.15         71.0046
415.60        71.47691
416.05        71.78808
416.49        71.85632
416.94        71.73784
417.39        71.54498
417.83        71.43152
418.28         71.4558
418.73        71.58379
419.17        71.74084
419.62        71.81209
420.07        71.74986
420.51         71.5596
420.96        71.39363
421.41        71.32643
421.85        71.33257
422.30        71.71851
422.74        72.17171
423.19        71.71019
423.64        70.56747
424.08        70.32516
424.53        70.97585
424.98        71.20642
425.42        70.97341
425.87        71.10675
426.31         71.5244
426.76        71.54689
427.21        71.19481
427.65        70.86151
428.10        70.64578
428.54        70.59972
428.99        70.78082
429.44          70.913
429.88        71.06879
430.33        71.74474
430.77        72.61107
431.22        73.09802
431.66        73.05286
432.11         72.3343
432.56        71.29982
433.00        71.05561
433.45        71.83298
433.89        72.71851
434.34        72.88938
434.78         74.0991
435.23        73.04749
435.67        70.61346
436.12        71.42535
436.57        71.44263
437.01        71.94894
437.46        72.26262
437.90        72.48524
438.35        71.26803
438.79         72.0412
439.24        71.97713
439.68        72.04902
440.13        72.20792
440.57        72.49866
441.02        72.74761
441.46        72.85849
441.91         73.3266
442.35        73.85103
442.80          73.478
443.24        72.51717
443.69         72.6966
444.13        73.85548
444.58        74.47757
445.02        74.40192
445.47        74.21854
445.91        74.07397
446.36        74.11275
446.80         74.3599
447.24        74.65363
447.69        74.90224
448.13        75.03825
448.58        75.04752
449.02         74.9284
449.47        74.76326
449.91         74.6485
450.36        74.63824
450.80        74.68124
451.25        74.77137
451.69        74.83859
452.13        74.88027
452.58        74.90543
453.02        74.92415
453.47        74.95863
453.91         75.0006
454.36        75.04562
454.80        75.04154
455.24        74.87292
455.69        74.54507
456.13        74.17469
456.58        73.88733
457.02        73.46825
457.46        73.11082
457.91        73.43002
458.35        74.10979
458.79        74.13451
459.24        73.49424
459.68        72.64372
460.13        71.90596
460.57        71.57132
461.01         71.7831
461.46        72.04462
461.90        72.48033
462.34        73.42805
462.79        73.41277
463.23        73.67248
463.68        73.68873
464.12        73.47841
464.56        73.02142
465.01        72.27263
465.45        71.44462
465.89        71.15412
466.34        71.33502
466.78        71.64882
467.22        71.98209
467.67        71.56471
468.11        71.37991
468.55        71.35123
468.99        71.68593
469.44        71.67884
469.88        71.32963
470.32        71.05903
470.77        70.92345
471.21        70.83028
471.65        70.77934
472.10        70.80154
472.54        70.87049
472.98         70.8951
473.42        70.84081
473.87        70.91481
474.31        71.00674
474.75         70.6121
475.20        69.95386
475.64        69.94331
476.08         70.4767
476.52        70.59598
476.97        70.25813
477.41        70.00925
477.85         69.9418
478.29         69.9205
478.74        69.98001
479.18        70.19024
479.62        70.47887
480.06        70.58519
480.50        70.44292
480.95        70.36804
481.39        70.42825
481.83        69.95617
482.27         69.7477
482.72         70.3172
483.16        69.85853
483.60        69.86726
484.04        70.02447
484.48        70.28955
484.93        70.53971
485.37        70.16116
485.81        69.89252
486.25        69.08295
486.69         69.6527
487.14         70.4144
487.58        70.03464
488.02        70.59545
488.46        68.81638
488.90        68.89005
489.34        70.44415
489.79        71.31864
490.23        70.44095
490.67        69.73179
491.11        69.22851
491.55        69.25916
491.99         69.7179
492.43        69.78558
492.88        69.42962
493.32        69.28032
493.76        69.39973
494.20         69.4925
494.64        69.53718
495.08        69.70707
495.52        69.89178
495.96         69.7099
496.41        69.23903
496.85        69.01232
497.29        68.96779
497.73        69.05193
498.17        68.43002
498.61        68.42857
499.05         68.7355
499.49         69.0657
499.93         69.0768
500.37        69.05196
500.82        68.98527
501.26        69.01402
501.70        69.12547
502.14        69.44369
502.58        69.43748
503.02         69.5582
503.46        69.64247
503.90        69.67864
504.34        69.65402
504.78        69.56534
505.22        69.41637
505.66        69.24371
506.10        69.12051
506.54        68.97301
506.98        68.77013
507.42        69.01959
507.86        69.19913
508.30        68.69411
508.74        69.15136
509.18        69.10856
509.62        69.08527
510.06        69.01524
510.50         68.9178
510.94         68.7795
511.38        68.63011
511.82        68.56867
512.26        68.61037
512.70        68.73095
513.14         68.8927
513.58        69.03047
514.02        69.11943
514.46        69.17164
514.90        69.19588
515.34        69.20936
515.78        69.21697
516.22        69.20824
516.66        69.17931
517.10        69.12801
517.54        69.05782
517.98          68.979
518.42        68.90079
518.86        68.83364
519.30        68.78314
519.74        68.74831
520.18        68.73371
520.62        68.74315
521.06         68.7775
521.50        68.84022
521.93        68.92023
522.37        68.97762
522.81        69.01273
523.25        69.02537
523.69        69.04307
524.13        69.11455
524.57        69.23809
525.01          69.384
525.45        69.50161
525.89        69.51018
526.32         69.3876
526.76        69.19055
527.20        68.94633
527.64        68.70365
528.08        68.49108
528.52        68.29822
528.96        68.16969
529.40        68.17177
529.83        68.30054
530.27        68.54026
530.71        68.79009
531.15        68.89362
531.59        68.81719
532.03        68.60255
532.46        68.33374
532.90        68.19611
533.34        68.22014
533.78        68.31278
534.22        68.40984
534.66         68.4977
535.09        68.50105
535.53        68.29649
535.97         67.9554
536.41        67.76454
536.85        67.75936
537.28        67.79464
537.72        67.85291
538.16        67.95982
538.60        68.09604
539.04        68.25677
539.47        68.38807
539.91        68.44939
540.35        68.42067
540.79        68.31843
541.22        68.19561
541.66        68.16279
542.10        68.23309
542.54        68.37148
542.97         68.5118
543.41        68.58213
543.85        68.54825
544.29        68.44997
544.72        68.31203
545.16        68.18961
545.60        68.09063
546.04        68.10202
546.47        68.06302
546.91         68.1067
547.35        68.18129
547.79        68.22947
548.22         68.2616
548.66        68.42004
549.10        68.70219
549.53        68.74311
549.97        68.56989
550.41        68.35746
550.84        68.18671
551.28        68.11633
551.72        68.11425
552.15        68.09978
552.59        68.12199
553.03        67.85701
553.46        68.16629
553.90        68.19655
554.34        68.19029
554.77        68.19169
555.21        68.21939
555.65        68.32573
556.08        68.48415
556.52        68.62396
556.96        68.69454
557.39        68.80355
557.83        68.89355
558.27        68.60239
558.70        68.03092
559.14        67.78278
559.57         67.8595
560.01        67.79488
560.45        67.63087
560.88        67.83264
561.32        68.29538
561.75        68.47218
562.19        68.37444
562.63        68.15899
563.06        67.97046
563.50        68.20998
563.93        68.68764
564.37        68.82894
564.80         68.6279
565.24        68.31746
565.68        67.84588
566.11        68.43364
566.55        67.66529
566.98        67.54597
567.42         67.4664
567.85        67.70181
568.29        68.15893
568.72        68.41829
569.16        68.54323
569.60        68.53546
570.03         68.6282
570.47        68.70153
570.90        68.90041
571.34        68.13528
571.77        68.80632
572.21        68.95305
572.64         68.8513
573.08        69.31153
573.51        68.44144
573.95        68.32273
574.38        68.60623
574.82        68.89587
575.25        68.44767
575.69        68.70713
576.12        68.63336
576.56         67.8661
576.99         68.1505
577.42        68.47032
577.86        68.47757
578.29        69.01548
578.73        69.02156
579.16        68.95918
579.60        68.54234
580.03        68.74667
580.47        68.64493
580.90         68.9257
581.33        69.17341
581.77        69.07479
582.20        68.62555
582.64        68.93372
583.07          68.724
583.51        68.63138
583.94        68.47514
584.37        68.53999
584.81        68.86737
585.24         68.8129
585.68        68.42702
586.11        68.70721
586.54        68.97336
586.98        68.24112
587.41        68.01031
587.85        68.21143
588.28        68.31311
588.71        67.82419
589.15        67.63982
589.58        68.33957
590.01        67.86735
590.45        67.97447
590.88        68.95663
591.31         68.9774
591.75        68.44067
592.18        68.01505
592.61         67.9343
593.05        68.40955
593.48        69.06097
593.91        68.95226
594.35        68.81909
594.78        68.12046
595.21        67.57101
595.65        67.91289
596.08        69.17184
596.51        69.24048
596.94        68.29474
597.38        67.93054
597.81        68.24915
598.24         68.7853
598.68        68.35283
599.11        68.30509
599.54        69.42616
599.97        68.80621
600.41        68.61591
600.84        68.01022
601.27        68.56596
601.70        68.33179
602.14        68.59254
602.57        68.33993
603.00        68.19171
603.43        67.29008
603.87        68.18269
604.30        68.76504
604.73        68.78543
605.16        67.99299
605.60        68.07253
606.03        67.69465
606.46        67.49709
606.89        67.53624
607.32        68.43336
607.76        67.95266
608.19         68.3989
608.62        68.13349
609.05         67.9301
609.48        67.99966
609.92         69.2628
610.35         68.4548
610.78        68.09556
611.21        68.05997
611.64        68.10832
612.07        68.34436
612.50        68.10502
612.94        68.08871
613.37        68.15615
613.80        67.89331
614.23         67.4453
614.66        67.47562
615.09        67.94147
615.52        68.14973
615.96        68.02047
616.39        68.03655
616.82        68.22737
617.25        67.82575
617.68        67.66522
618.11        67.70356
618.54        68.09344
618.97        68.13325
619.40        67.83452
619.84        67.89796
620.27         67.8989
620.70        68.08224
621.13        68.18528
621.56        67.76614
621.99        67.00436
622.42        66.77643
622.85        67.10354
623.28        67.37198
623.71        67.52168
624.14        67.47829
624.57        67.75604
625.00         67.8007
625.43         67.7402
625.86        67.62328
626.29        67.53984
626.72        67.09364
627.15        67.35833
627.58        67.40012
628.01        67.43804
628.44        67.57479
628.87        67.48915
629.30        67.33056
629.73        67.02209
630.16        67.32743
630.59        67.14418
631.02        67.33842
631.45        67.53615
631.88        67.69482
632.31        67.77381
632.74        67.79346
633.17        67.77225
633.60        67.69532
634.03        67.57368
634.46        67.45746
634.89        67.33553
635.32        67.10014
635.75        66.81827
636.18        66.66839
636.61        66.68486
637.04        66.74099
637.47        66.83008
637.89         67.0564
638.32         67.3008
638.75        67.36118
639.18        67.20577
639.61        66.89721
640.04        66.57149
640.47         66.4472
640.90        66.57375
641.33        66.88213
641.76        67.25104
642.18        67.48689
642.61        67.50614
643.04        67.37402
643.47        67.17272
643.90        67.03477
644.33        67.00008
644.76        67.02888
645.18        67.06956
645.61        67.02283
646.04        66.88013
646.47        66.69018
646.90        66.52032
647.33        66.45743
647.75        66.49117
648.18        66.64828
648.61        66.90995
649.04        66.97427
649.47        66.75785
649.89        67.39805
650.32        67.07398
650.75        66.97601
651.18        66.69864
651.61        66.66805
652.03        66.87318
652.46        67.16551
652.89        67.43819
653.32        67.20952
653.74        66.66861
654.17        66.70491
654.60        67.43732
655.03         67.4157
655.46        66.73056
655.88         66.2223
656.31        68.23867
656.74        67.98699
657.16        69.17436
657.59        70.59147
658.02        67.96114
658.45        68.11214
658.87         67.4677
659.30         67.5575
659.73        67.22424
660.15        68.15562
660.58        67.04872
661.01        66.91177
661.44        66.89056
661.86        66.61953
662.29        66.11644
662.72        66.58833
663.14        66.69205
663.57        66.70383
664.00           66.36
664.42        66.41475
664.85        66.88779
665.27        67.37228
665.70        67.68683
666.13        67.78622
666.55        67.63875
666.98          67.197
667.41        66.59722
667.83        66.49171
668.26         66.2453
668.69        66.37541
669.11        66.62704
669.54        66.81958
669.96        66.89118
670.39        67.23364
670.82        67.30571
671.24        67.32815
671.67        67.20686
672.09        67.22727
672.52        67.38148
672.94        67.43871
673.37        67.36878
673.80        67.17624
674.22        66.92894
674.65        66.76846
675.07        66.73952
675.50        66.73812
675.92        66.74176
676.35        66.74531
676.77        66.73695
677.20        66.71265
677.62        66.68652
678.05        66.68195
678.47        66.70139
678.90        66.74217
679.32        66.78278
679.75        66.80457
680.17        66.79799
680.60        66.77129
681.02        66.75204
681.45        66.77308
681.87        66.85103
682.30        66.97595
682.72        67.11881
683.15        67.15887
683.57        67.10765
684.00        67.04456
684.42        67.01334
684.85        67.03013
685.27        67.10489
685.70        67.24976
686.12         67.3858
686.54        67.45801
686.97         67.4567
687.39        67.17186
687.82        66.97239
688.24        66.96812
688.66        67.18788
689.09        67.14726
689.51        66.88495
689.94        66.83066
690.36        67.00443
690.78        67.10287
691.21        67.12553
691.63        67.26546
692.06        67.47871
692.48        67.55566
692.90        67.47408
693.33        67.37102
693.75        67.25286
694.17         67.0062
694.60        66.73373
695.02        66.65618
695.44         66.7778
695.87        67.05378
696.29        67.36501
696.71        67.28931
697.14         66.9156
697.56        66.84323
697.98        67.09699
698.41        67.22957
698.83        67.22395
699.25        67.39713
699.68        67.64069
700.10        67.68199
700.52        67.47127
700.94        67.11366
701.37        66.74975
701.79        66.60947
702.21         66.7394
702.64        67.04656
703.06        67.42879
703.48        67.69991
703.90         67.7954
704.33        67.77133
704.75        67.65465
705.17        67.48087
705.59        67.28637
706.01        67.06324
706.44        66.87064
706.86        66.82934
707.28        66.94787
707.70        67.19385
708.12        67.50124
708.55        67.74823
708.97        67.89667
709.39        67.95893
709.81        67.94577
710.23        67.90565
710.66        67.85088
711.08         67.7738
711.50        67.66237
711.92        67.52454
712.34        67.37306
712.76        67.23238
713.19        67.11121
713.61        67.05491
714.03          67.062
714.45        67.12582
714.87        67.26035
715.29        67.48969
715.71         67.7971
716.13        68.14744
716.56        68.45717
716.98        68.68107
717.40         68.7547
717.82         68.7029
718.24         68.5333
718.66        68.26812
719.08         67.9557
719.50        67.60473
719.92         67.2967
720.34        67.20593
720.76        67.36327
721.19        67.47102
721.61        67.89616
722.03        68.17168
722.45        68.35888
722.87         68.4648
723.29        68.46618
723.71        68.32783
724.13        68.06548
724.55        67.70993
724.97        67.34569
725.39        67.12196
725.81         67.0832
726.23        67.17175
726.65        67.34608
727.07        67.67995
727.49         67.8934
727.91        68.18996
728.33        68.46171
728.75        68.65993
729.17        68.76288
729.59        68.76583
730.01         68.7025
730.43         68.6357
730.85         68.5863
731.27        68.54539
731.69        68.48933
732.10        68.37613
732.52        68.19769
732.94        67.98599
733.36        67.81148
733.78        67.63825
734.20        67.47363
734.62        67.61757
735.04        68.07987
735.46        67.52222
735.88        67.98283
736.30        68.02266
736.72        68.25714
737.13        68.61446
737.55        68.93269
737.97        69.05839
738.39        68.93383
738.81        68.47554
739.23        67.89426
739.65        67.92088
740.06        68.44703
740.48        68.68903
740.90        68.58442
741.32        68.62682
741.74        68.84914
742.16        69.03116
742.57        69.16207
742.99        69.28565
743.41         69.3615
743.83        69.30849
744.25        69.12849
744.67         68.8396
745.08        68.56595
745.50         68.4875
745.92        68.64407
746.34        68.96773
746.75        69.32601
747.17        69.46672
747.59        69.33566
748.01        69.08153
748.42        68.78758
748.84        68.44528
749.26        68.18913
749.68        68.27285
750.09        68.60933
750.51        68.88596
750.93        68.97425
751.35        68.80789
751.76         68.4826
752.18        68.27157
752.60        68.19547
753.01        68.21391
753.43        68.32506
753.85         67.9427
754.27        68.19183
754.68        68.16476
755.10        68.20222
755.52         68.2781
755.93        68.38519
756.35        68.49481
756.77         68.6165
757.18        68.71143
757.60         68.7706
758.02        68.96402
758.43        69.21695
758.85        68.77092
759.26         68.7213
759.68        68.22421
760.10        68.31487
760.51        68.38331
760.93        68.65517
761.34        68.38731
761.76        69.03527
762.18        69.00874
762.59        68.85852
763.01        69.01226
763.42        69.48629
763.84        69.68935
764.26        69.54716
764.67        69.27638
765.09        69.00489
765.50        68.71014
765.92        68.51928
766.33         68.5815
766.75        68.79214
767.16        68.93006
767.58        68.89862
768.00        68.86186
768.41        68.86729
768.83        68.89085
769.24        68.92238
769.66        68.94759
770.07        68.96361
770.49        68.88853
770.90         68.8262
771.32         69.2198
771.73        69.90595
772.15         70.1241
772.56        69.82429
772.97        69.35001
773.39        68.91393
773.80        68.75278
774.22        68.92208
774.63        69.39455
775.05        69.93801
775.46        70.24749
775.88        70.19964
776.29         69.9124
776.70         69.5406
777.12         69.3572
777.53         69.4463
777.95        69.68113
778.36        69.95963
778.77         70.0749
779.19        69.99163
779.60        69.80961
780.02        69.58052
780.43         69.4447
780.84        69.46077
781.26         69.3281
781.67        69.16269
782.09        69.68668
782.50        70.63865
782.91        70.71659
783.33        69.98002
783.74        69.69301
784.15        69.91271
784.57        69.89831
784.98        69.68561
785.39        69.66989
785.81        69.86543
786.22        70.16904
786.63        70.48789
787.04        70.66969
787.46        70.69146
787.87         70.5821
788.28        70.43356
788.70        70.36185
789.11        70.37504
789.52        70.47801
789.93         70.6151
790.35        70.65241
790.76        70.59114
791.17        70.52811
791.58        70.50529
792.00        70.45958
792.41         70.4098
792.82        70.50479
793.23        70.66975
793.65        70.47237
794.06        70.04892
794.47        70.11153
794.88        70.56686
795.29        70.73534
795.71        70.49957
796.12        70.35919
796.53         70.3688
796.94        70.39175
797.35        70.47603
797.76        70.81212
798.18        71.26993
798.59        71.52526
799.00        71.50261
799.41        71.34084
799.82        71.14662
800.23         71.0574
800.64        71.11474
801.06        71.24358
801.47        71.40051
801.88        71.41843
802.29        71.25495
802.70        70.96619
803.11         70.6303
803.52        70.37034
803.93        70.25085
804.34        70.25002
804.75        70.34057
805.17        70.55367
805.58        70.91837
805.99        71.11382
806.40        71.17387
806.81        71.85891
807.22         72.8228
807.63        72.44257
808.04        70.99139
808.45        70.33618
808.86        70.64678
809.27        70.95408
809.68        71.06277
810.09        71.09305
810.50         70.9869
810.91        70.72113
811.32        70.48976
811.73        70.60036
812.14        71.10197
812.55        71.89046
812.96        72.70819
813.37        73.06974
813.78        72.83409
814.19        72.18858
814.60        71.36534
815.01         70.6684
815.42        70.19221
815.83        69.85461
816.24        69.67911
816.65        69.71184
817.05        69.94827
817.46        70.35462
817.87        70.83077
818.28        71.16129
818.69        71.29101
819.10        71.24085
819.51        71.09959
819.92        71.05599
820.33        71.15913
820.74        71.34066
821.14        71.52025
821.55        71.56152
821.96        71.43776
822.37        71.21909
822.78        70.95478
823.19        70.71829
823.60        70.54696
824.00        70.43495
824.41        70.37526
824.82        70.46716
825.23        70.70351
825.64        71.06127
826.04        71.41646
826.45        71.52509
826.86        71.35442
827.27         70.9759
827.68        70.53629
828.08        70.31902
828.49        70.35561
828.90        70.58512
829.31        70.93346
829.72        71.27499
830.12        71.57812
830.53        71.82353
830.94        71.97802
831.35        71.93898
831.75         71.7153
832.16        71.30364
832.57        70.85452
832.97        70.59311
833.38        70.57512
833.79        70.73077
834.20        70.96737
834.60        71.12334
835.01        71.15546
835.42        71.15572
835.82        71.14581
836.23        71.08261
836.64        71.00835
837.04         70.8922
837.45         70.8752
837.86        71.25567
838.26        72.08474
838.67        73.22659
839.08        74.31409
839.48        74.64896
839.89        74.06054
840.29        72.79768
840.70        71.44839
841.11        70.68027
841.51         70.6666
841.92        71.19367
842.33        72.01144
842.73        72.66689
843.14        72.88081
843.54        72.84351
843.95        72.67759
844.35        72.63484
844.76         72.7599
845.17        72.94576
845.57        73.09382
845.98        73.03272
846.38        72.75146
846.79        72.32556
847.19        71.86352
847.60        71.50083
848.00        71.29892
848.41        71.19215
848.81        71.19034
849.22        71.22205
849.62        71.30019
850.03        71.43532
850.43        71.59508
850.84        71.65179
851.24        71.63129
851.65        71.48803
852.05        71.41216
852.46        71.62616
852.86        72.14979
853.27        72.86646
853.67        73.48463
854.07        73.73192
854.48        73.53291
854.88        73.01234
855.29        72.26588
855.69        71.61659
856.10        71.13113
856.50        70.82514
856.90        70.65241
857.31        70.54659
857.71         70.5266
858.12        70.54793
858.52        70.64885
858.92        70.75814
859.33        70.82957
859.73        70.91578
860.13        70.90224
860.54         70.6404
860.94        70.17352
861.34        69.53885
861.75        68.96278
862.15         68.8616
862.55         69.2914
862.96          70.086
863.36        71.01875
863.76        71.59972
864.17        71.66257
864.57        71.38683
864.97        70.85305
865.38        70.20625
865.78        69.56783
866.18        68.88902
866.58        68.35368
866.99        68.28734
867.39        68.76097
867.79        69.66909
868.19         70.7056
868.60        71.36774
869.00        71.55233
869.40        71.33534
869.80        70.89349
870.21        70.59879
870.61        70.64439
871.01         70.8698
871.41        71.07171
871.81         70.9602
872.22        70.48186
872.62        69.74615
873.02        69.00092
873.42        68.64615
873.82        68.78591
874.22        69.28715
874.63        69.86744
875.03        70.10136
875.43        69.86826
875.83         69.3079
876.23        68.65821
876.63        68.28345
877.03        68.28563
877.44        68.53204
877.84        68.88412
878.24        69.11716
878.64        69.11509
879.04        68.82716
879.44        68.46456
879.84        68.44014
880.24        68.79117
880.64        69.34454
881.04        69.80962
881.44        69.74493
881.84        69.07265
882.24        67.97713
882.65        66.82442
883.05        66.16685
883.45        66.15758
883.85        66.64535
884.25        67.39902
884.65        68.01202
885.05        68.33046
885.45        68.45587
885.85        68.48905
886.25        68.58966
886.65        68.80196
887.05        69.05199
887.45        69.25996
887.85        69.31779
888.25        69.20451
888.65        68.97687
889.04        68.72947
889.44        68.62754
889.84        68.69012
890.24        68.85916
890.64        69.04924
891.04         69.1224
891.44        69.03938
891.84        68.85939
892.24        68.62033
892.64        68.36537
893.04        68.13903
893.44        67.96057
893.83        67.89063
894.23        67.97615
894.63        68.23576
895.03        68.60477
895.43        69.07438
895.83        69.63206
896.23         70.2116
896.63        70.77389
897.02        71.10326
897.42        70.89981
897.82         70.1517
898.22        69.02335
898.62         67.8271
899.01        67.01607
899.41        66.73443
899.81        66.85589
900.21        67.26114
900.61        67.73463
901.00        68.17101
901.40        68.60571
901.80        68.99153
902.20        69.25201
902.59        69.38056
902.99        69.36021
903.39        69.22617
903.79        69.06399
904.18        68.89701
904.58        68.71538
904.98        68.57915
905.38        68.57305
905.77        68.71287
906.17        69.02329
906.57        69.33459
906.96        69.35863
907.36        69.03657
907.76        68.45708
908.15        67.96499
908.55        68.09097
908.95        68.92606
909.34        70.29018
909.74        71.68476
910.14        72.37633
910.53         72.1431
910.93        71.24749
911.33        70.03111
911.72        69.01711
912.12        68.45398
912.52        68.19887
912.91        68.17361
913.31        68.27995
913.70        68.46192
914.10        68.73131
914.49        69.13148
914.89        69.61588
915.29        70.16278
915.68        70.74831
916.08        71.15577
916.47        71.13581
916.87        70.67873
917.26        69.85531
917.66        69.04144
918.05        68.65416
918.45        68.79139
918.84        69.39446
919.24        70.13306
919.64        70.55024
920.03         70.5202
920.42        70.13188
920.82        69.72284
921.21        69.77025
921.61        70.34757
922.00        71.32774
922.40        72.30598
922.79        72.72698
923.19        72.41501
923.58        71.61836
923.98        70.69073
924.37        70.07232
924.77        69.89912
925.16        69.97179
925.55         70.2261
925.95        70.52972
926.34        70.80914
926.74          71.103
927.13        71.21747
927.52        70.76512
927.92        69.78993
928.31        68.43003
928.70         67.1264
929.10        66.53251
929.49        66.76951
929.89        67.58261
930.28        68.76006
930.67        69.78973
931.07        70.42265
931.46        70.86829
931.85        70.95879
932.24        70.49851
932.64        69.57973
933.03        68.23006
933.42        66.99761
933.82        66.68837
934.21        67.44572
934.60        69.12637
934.99        71.09966
935.39        72.18729
935.78        72.08505
936.17        71.00085
936.56         69.6162
936.96        69.03111
937.35        69.49899
937.74        70.67004
938.13        71.86337
938.53        72.02909
938.92        70.97014
939.31        69.13672
939.70        67.20447
940.09        66.11102
940.49        66.05465
940.88        66.77143
941.27        67.90504
941.66        68.79971
942.05        69.20839
942.44        69.35364
942.84         69.3765
943.23        69.48402
943.62        69.75069
944.01        70.00729
944.40        70.29472
944.79        70.73975
945.18        71.31074
945.57        71.98083
945.97        72.42378
946.36        72.18427
946.75        71.17348
947.14        69.64346
947.53        68.04288
947.92         66.9947
948.31        66.65674
948.70        66.86755
949.09        67.44356
949.48        68.05027
949.87        68.52955
950.26        68.93794
950.65        69.27511
951.04        69.54987
951.43        69.75224
951.82        69.83228
952.21        69.73815
952.60        69.42574
952.99        68.94274
953.38        68.37975
953.77        67.88629
954.16        67.67882
954.55        67.79461
954.94        68.12911
955.33        68.62944
955.72        69.18333
956.11         69.6972
956.50        70.20392
956.89         70.4484
957.28        70.02976
957.66        68.93386
958.05        67.36947
958.44        65.87025
958.83        65.20002
959.22        65.49416
959.61        66.55381
960.00        67.92764
960.39        68.74535
960.78        68.70401
961.16        68.03381
961.55        67.15777
961.94        66.62257
962.33        66.58836
962.72        66.91726
963.11        67.38055
963.49         67.6019
963.88        67.38257
964.27        66.86477
964.66        66.41637
965.04        66.58709
965.43        67.41804
965.82        68.80582
966.21        70.16358
966.60        70.37976
966.98        69.17029
967.37        67.01523
967.76        64.81434
968.15        63.69802
968.53        63.86849
968.92        65.03571
969.31        66.60293
969.69        67.36933
970.08        66.88367
970.47        65.60478
970.86        64.27841
971.24        63.94678
971.63        64.82992
972.02        66.57618
972.40        68.69907
972.79        69.95182
973.17        69.93816
973.56        69.07573
973.95        67.81984
974.33        66.73728
974.72        66.00708
975.11         65.4001
975.49        64.99406
975.88        64.90275
976.26        65.19238
976.65        65.85272
977.04        66.58068
977.42        66.82722
977.81        66.44042
978.19        65.50238
978.58        64.53151
978.96        64.35648
979.35        65.13049
979.74        66.65858
980.12        68.32967
980.51        68.82104
980.89        67.95981
981.28        66.17912
981.66        64.35121
982.05        63.68122
982.43        64.44936
982.82        66.28759
983.20         68.7442
983.59        70.82407
983.97        72.16451
984.35         72.9453
984.74        73.19938
985.12        73.28513
985.51        73.25765
985.89        72.97839
986.28        72.57101
986.66         72.1753
987.04        71.90244
987.43        71.77218
987.81        71.70467
988.20        71.38021
988.58        70.77003
988.96        69.84328
989.35        68.93483
989.73        68.50133
990.12        68.57873
990.50        69.13541
990.88        69.51335
991.27        68.59944
991.65        66.30031
992.03        63.09377
992.42        60.20459
992.80        59.27559
993.18         60.6145
993.56        63.81541
993.95         67.7136
994.33        70.14383
994.71        70.19393
995.10          68.569
995.48        66.40388
995.86        65.50829
996.24        66.34422
996.63        68.23119
997.01        70.68866
997.39        72.35934
997.77        72.63692
998.15        72.10866
998.54        70.99902
998.92        69.45051
999.30        67.75939
999.68        65.86675
1000.06        64.43541
1000.45         64.4105
1000.83        66.01801
1001.21        69.17043
1001.59        72.97376
1001.97        75.17419
1002.35        74.91537
1002.73        72.84497
1003.12        70.35194
1003.50        69.19332
1003.88        69.87344
1004.26        71.78132
1004.64        74.36985
1005.02        76.42792
1005.40         77.3113
1005.78        77.49733
1006.16        76.84279
1006.54        75.10332
1006.92        72.53464
1007.30         69.2965
1007.69        66.41087
1008.07        65.15303
1008.45        65.89027
1008.83        68.38466
1009.21        71.75175
1009.59        73.73147
1009.97        73.24397
1010.35        70.90318
1010.73        67.68748
1011.11        65.01835
1011.49        63.37888
1011.86        62.42231
1012.24         61.9669
1012.62        61.73869
1013.00        61.63029
1013.38        61.73061
1013.76        62.22492
1014.14        63.33702
1014.52        64.95538
1014.90        66.78069
1015.28        68.19463
1015.66         68.5023
1016.04        67.66577
1016.41        65.94308
1016.79        63.85894
1017.17        62.49903
1017.55        62.25347
1017.93        62.80508
1018.31        63.86271
1018.69        65.01279
1019.06         66.1264
1019.44        67.38173
1019.82        68.53427
1020.20         68.9332
1020.58        68.38258
1020.95        67.01366
1021.33        65.59164
1021.71        64.90435
1022.09        65.10918
1022.46         66.2055
1022.84        67.78647
1023.22        68.82355
1023.60        68.83573
1023.97        67.91511
1024.35        67.18033
1024.73        67.86512
