SpectraSmart Spectrum 2.9.0.0
--------- Device Information -----------
Spectrum Name :  反射率_0
Saving Time :  2024/04/26 23:20:18
Spectro-Module Model Name : SE2030-DUVN
Spectro-Module Serial Number : OS361AC55029948
Wavelength Start : 200
Wavelength End : 1025
Wavelength Unit : Wavelength(nm)
Spectrum Unit : Reflectance(%)
-----------Spectrum Setting ------------
Integration Time : 20ms
Average : 10
Boxcar : 0
Background removal :  enabled
linearity correction :  enabled
SC :  disabled
Intensity correction :  disabled
DWT denoise :  enabled
savitzky-golay :  disabled
FFT :  disabled
Running average :  disabled
Kalman :  disabled
High pass :  disabled
---------------BEGIN--------------------
Wavelength(nm)             Reflectance(%)
200.29               0
200.75        36.49388
201.21        32.91946
201.67        30.00292
202.13        28.86534
202.58        29.44753
203.04         31.7565
203.50         35.7174
203.96        40.09387
204.42        43.56305
204.88        45.85318
205.34         46.6254
205.80        46.16379
206.26        44.81561
206.72        42.58791
207.18         40.0799
207.64        37.45031
208.10        34.51715
208.55        31.30347
209.01        27.69342
209.47        26.16054
209.93        28.05538
210.39        31.38166
210.85        35.13123
211.31        40.19471
211.77        48.66219
212.23         66.1816
212.69        107.6467
213.14        172.7218
213.60        162.0693
214.06        109.6625
214.52        76.46667
214.98        62.66914
215.44        57.89787
215.90        56.49755
216.36        57.03033
216.81        57.99996
217.27        59.23177
217.73        62.60916
218.19        67.33208
218.65        67.97749
219.11        63.64988
219.57        57.52684
220.02         54.3306
220.48        57.52962
220.94        67.08979
221.40        84.40073
221.86        108.1856
222.32        120.7842
222.77        109.0842
223.23        86.13106
223.69        65.12735
224.15        52.80312
224.61        47.35458
225.06        45.21357
225.52        44.92023
225.98        44.98676
226.44         44.9618
226.90           45.27
227.36        45.56044
227.81        45.14604
228.27        44.10654
228.73        42.52888
229.19        41.08033
229.65        40.57432
230.10        41.02149
230.56        42.20498
231.02        43.45777
231.48        43.73689
231.93        42.85071
232.39        41.40338
232.85         40.1134
233.31        39.96246
233.77         41.0251
234.22        43.01643
234.68        45.21026
235.14        46.57761
235.60        46.86004
236.05         46.3643
236.51        45.69994
236.97        46.12265
237.43        48.07251
237.88        51.18245
238.34        54.78485
238.80        58.14201
239.26        61.16549
239.71        64.63059
240.17         68.4325
240.63        72.52323
241.08        76.82333
241.54        80.33228
242.00         84.4642
242.46        92.93932
242.91        109.1661
243.37         136.096
243.83        174.6085
244.28        207.5133
244.74        209.0495
245.20        179.1471
245.66        141.0791
246.11        115.8192
246.57        104.3032
247.03        100.1134
247.48        99.67574
247.94        97.95584
248.40        94.42013
248.85        91.47049
249.31        89.25948
249.77        86.34452
250.22        82.05482
250.68        75.32205
251.14        67.15627
251.59        62.97008
252.05        66.00846
252.51        74.22747
252.96        81.94756
253.42        84.38773
253.88         82.0855
254.33        77.05712
254.79        73.51745
255.25        74.77496
255.70        80.33938
256.16        88.62402
256.62        95.64862
257.07        95.59915
257.53        90.22584
257.99        83.29974
258.44        77.55476
258.90        75.52809
259.35        75.95062
259.81        77.82114
260.27         79.6907
260.72        79.91547
261.18        78.69667
261.63        76.46828
262.09        74.31444
262.55        72.70203
263.00        71.53049
263.46        70.73615
263.91        69.76395
264.37        68.36289
264.83        66.51421
265.28        64.40478
265.74        62.57478
266.19        61.29479
266.65        60.65613
267.11        60.38699
267.56        60.22177
268.02        59.77086
268.47        58.91328
268.93        57.80786
269.38        56.52015
269.84        55.22472
270.30        53.96666
270.75         52.6854
271.21        51.46714
271.66        50.36845
272.12         49.4035
272.57        48.54378
273.03        47.70504
273.48        46.72726
273.94        45.64649
274.39         44.4735
274.85        43.38574
275.31        42.46443
275.76        41.69685
276.22        41.09588
276.67         40.5297
277.13        39.92642
277.58        39.21083
278.04        38.43919
278.49        37.65029
278.95        37.03529
279.40        36.55615
279.86        36.22905
280.31        35.85474
280.77          35.277
281.22        34.44575
281.68         33.5099
282.13        32.62187
282.59        32.08559
283.04         31.8986
283.50        31.98805
283.95        32.16362
284.41        32.13856
284.86        31.85316
285.32        31.44977
285.77        31.06775
286.22        30.97256
286.68        31.20119
287.13        31.59532
287.59        32.06469
288.04        32.42613
288.50        32.63805
288.95        32.72707
289.41        32.69886
289.86        32.47826
290.32        32.14354
290.77         31.7333
291.22        31.40875
291.68         31.3919
292.13          31.726
292.59        32.37896
293.04        33.28317
293.50        34.33508
293.95        35.47332
294.40        36.72752
294.86        38.06443
295.31        39.42226
295.77        40.80157
296.22        42.18361
296.68        43.63877
297.13         45.2718
297.58        47.10841
298.04        49.11437
298.49        51.20229
298.95        53.25276
299.40        55.21136
299.85        57.11491
300.31        59.01108
300.76        60.94671
301.21         62.9507
301.67        65.02265
302.12        67.10575
302.58        69.21773
303.03        71.30099
303.48        73.38412
303.94        75.50221
304.39        77.62656
304.84        79.77983
305.30        81.96455
305.75        84.10596
306.20        86.19414
306.66        88.24081
307.11        90.21935
307.57        92.14342
308.02         93.9073
308.47        95.53855
308.93        97.06254
309.38        98.56379
309.83        100.3084
310.29        102.3266
310.74        104.5229
311.19        106.6354
311.65        108.2037
312.10        109.1037
312.55        109.4747
313.00        109.6436
313.46        110.1246
313.91        111.0192
314.36        112.2166
314.82        113.4698
315.27        114.3906
315.72        114.8551
316.18        115.0312
316.63        115.0908
317.08        115.3488
317.53        115.8913
317.99        116.5986
318.44        117.3588
318.89        117.9645
319.35        118.3443
319.80          118.57
320.25        118.7166
320.70        118.9013
321.16        119.1617
321.61        119.5096
322.06        119.8771
322.51        120.1695
322.97        120.3516
323.42        120.4562
323.87        120.6206
324.32        121.0904
324.78         121.856
325.23        122.9222
325.68        123.9331
326.13        124.3134
326.59        123.9397
327.04         123.023
327.49        122.0076
327.94        121.6327
328.39        122.0815
328.85        123.1064
329.30        124.4563
329.75        125.3729
330.20        125.6045
330.66        125.3345
331.11        124.9079
331.56        124.7906
332.01        125.1344
332.46        125.7585
332.92         126.422
333.37        126.9221
333.82        127.1054
334.27        127.1181
334.72        127.0662
335.17        127.0894
335.63        127.2504
336.08        127.5748
336.53          128.09
336.98        128.8985
337.43        129.9852
337.88        131.2705
338.34         132.606
338.79        133.8805
339.24        134.9357
339.69        135.7803
340.14        136.2891
340.59        136.3021
341.05        135.8824
341.50        135.1132
341.95        134.3326
342.40        134.0457
342.85        134.3779
343.30        135.2078
343.75        136.2925
344.20        137.1989
344.66        137.7838
345.11        138.1555
345.56        138.4039
346.01        138.6844
346.46        139.0588
346.91         139.465
347.36        139.8701
347.81        140.2596
348.26        140.6045
348.72        140.8819
349.17         141.125
349.62        141.4219
350.07        141.7664
350.52        142.1611
350.97        142.3567
351.42        141.9622
351.87        140.9654
352.32        139.5284
352.77        138.1483
353.22        137.5434
353.67        137.8325
354.13        138.7908
354.58        139.9179
355.03        140.3209
355.48        139.7594
355.93        138.4924
356.38        137.0201
356.83        136.0997
357.28        135.8913
357.73        136.1335
358.18        136.4068
358.63         136.052
359.08        134.9191
359.53        133.2656
359.98        131.4706
360.43        130.0644
360.88        129.1675
361.33        128.6019
361.78        128.1157
362.23        127.3248
362.68        126.1471
363.13        124.7455
363.58        123.3162
364.03        122.1351
364.48        121.2672
364.93        120.5986
365.38        120.0228
365.83        119.3893
366.28        118.6418
366.73        117.8308
367.18        116.9713
367.63        116.0745
368.08        115.1552
368.53        114.2129
368.98        113.2626
369.43        112.3338
369.88        111.4394
370.33        110.5762
370.78          109.77
371.23        109.0648
371.68        108.4584
372.13        107.9239
372.58        107.3967
373.03        106.7701
373.48        106.0101
373.93        105.1443
374.38        104.2008
374.83        103.2393
375.28        102.2965
375.72        101.3464
376.17        100.4787
376.62         99.7014
377.07        99.02722
377.52         98.4767
377.97        98.00478
378.42        97.54781
378.87        97.08371
379.32        96.58042
379.77         96.1371
380.22        95.90279
380.67        95.86539
381.11        96.00787
381.56        95.99574
382.01        95.38964
382.46        94.17111
382.91        92.57313
383.36          91.047
383.81        90.20227
384.26        90.12194
384.71        90.58331
385.15        91.28135
385.60        91.67528
386.05        91.58598
386.50        91.17056
386.95         90.5117
387.40        89.75264
387.85        88.98787
388.29        88.12783
388.74        87.38617
389.19        86.83978
389.64        86.48886
390.09        86.30489
390.54        86.18181
390.98        85.91405
391.43        85.50723
391.88        85.01147
392.33        84.51568
392.78        84.14574
393.23        83.92428
393.67        83.76551
394.12        83.68546
394.57        83.55175
395.02        83.33158
395.47        83.02431
395.91        82.70421
396.36        82.46641
396.81        82.37206
397.26        82.39873
397.71        82.40545
398.15        82.23657
398.60        81.97212
399.05        81.34692
399.50        80.61241
399.95        80.70486
400.39        81.40735
400.84        81.22534
401.29        80.18703
401.74        79.58718
402.18        79.49615
402.63        79.11953
403.08        78.55594
403.53        78.29775
403.97        78.36259
404.42        78.61318
404.87        78.86892
405.32        78.84052
405.76        78.46942
406.21        77.89549
406.66        77.28865
407.11        76.97526
407.55        77.05515
408.00        77.22292
408.45        77.39336
408.90        77.80241
409.34        78.16487
409.79        77.62107
410.24        76.45054
410.68        75.82446
411.13        75.85226
411.58        75.91711
412.03        75.89059
412.47        75.89116
412.92        75.75278
413.37        75.57838
413.81        75.40495
414.26        75.39874
414.71        75.55267
415.15        75.84534
415.60        76.14719
416.05        76.32145
416.49        76.32369
416.94        76.18112
417.39        75.98151
417.83        75.83881
418.28        75.79855
418.73        75.84551
419.17        75.91776
419.62        75.91471
420.07        75.79714
420.51        75.56559
420.96        75.36543
421.41        75.27001
421.85        75.25294
422.30         75.5951
422.74        75.99864
423.19        75.57577
423.64        74.52575
424.08         74.2673
424.53        74.80265
424.98        74.97227
425.42        74.73952
425.87          74.877
426.31         75.2871
426.76        75.25333
427.21        74.88035
427.65        74.70996
428.10        74.67777
428.54        75.11361
428.99        74.87862
429.44        74.69631
429.88        74.45621
430.33         75.2196
430.77        76.49479
431.22        76.90588
431.66        76.36024
432.11        75.41753
432.56        74.53535
433.00         74.4144
433.45        75.13569
433.89        76.15375
434.34        76.67294
434.78        77.02269
435.23         75.4801
435.67         73.8689
436.12        74.22581
436.57        74.49102
437.01        75.05311
437.46        75.27749
437.90        75.15331
438.35        74.37757
438.79        74.49361
439.24         74.4005
439.68        74.50269
440.13        74.86851
440.57        75.41798
441.02        75.53453
441.46        75.24483
441.91        75.68676
442.35        76.50066
442.80        76.17898
443.24        75.00491
443.69        75.03444
444.13         76.1366
444.58        76.57394
445.02        76.27787
445.47        76.22695
445.91        76.45347
446.36        76.60143
446.80        76.65791
447.24        76.70761
447.69        76.77621
448.13        76.88552
448.58        77.04756
449.02        77.21438
449.47        77.33977
449.91        77.31516
450.36          77.151
450.80        76.88099
451.25        76.60484
451.69        76.37496
452.13        76.25723
452.58        76.30199
453.02        76.44688
453.47        76.52074
453.91        76.47636
454.36        76.40718
454.80        76.34528
455.24        76.13275
455.69        75.76162
456.13        75.60896
456.58        75.79112
457.02        74.75412
457.46        74.73083
457.91        74.93183
458.35        75.63323
458.79        75.63108
459.24        74.95016
459.68        74.05863
460.13        73.25246
460.57        72.99232
461.01         73.4543
461.46        73.43668
461.90        74.00562
462.34        75.20883
462.79        74.87387
463.23        75.03584
463.68        74.90907
464.12        74.58803
464.56        74.05682
465.01        73.21518
465.45        72.31924
465.89        72.11906
466.34        72.46997
466.78        72.81975
467.22        73.05742
467.67        72.34738
468.11        72.09517
468.55        72.03009
468.99        72.44413
469.44         72.4457
469.88        72.02557
470.32        71.72736
470.77        71.61118
471.21        71.52886
471.65        71.47702
472.10        71.50211
472.54         71.5639
472.98        71.56286
473.42        71.46745
473.87        71.44902
474.31        71.42172
474.75        71.01873
475.20        70.41895
475.64        70.31078
476.08        70.66572
476.52        70.71609
476.97        70.40863
477.41        70.35952
477.85        70.67298
478.29         70.1237
478.74        70.63039
479.18        70.62231
479.62        70.66517
480.06        70.61237
480.50        70.43539
480.95        70.42802
481.39         70.6275
481.83        70.04842
482.27        70.02164
482.72        70.61946
483.16        70.21867
483.60        70.30265
484.04         70.4845
484.48        70.83847
484.93         71.1241
485.37        70.71794
485.81        70.02901
486.25        69.33469
486.69        71.14106
487.14        72.18429
487.58         70.2942
488.02        70.54624
488.46        69.31284
488.90        69.50703
489.34        70.57582
489.79        71.28571
490.23        70.47434
490.67         69.7785
491.11        69.18399
491.55        69.10114
491.99        69.43762
492.43        69.41238
492.88        69.01531
493.32        68.86211
493.76           68.98
494.20        69.06639
494.64        69.10789
495.08        69.16277
495.52        69.19656
495.96        69.27398
496.41         69.3577
496.85        69.16093
497.29        68.69591
497.73        68.83298
498.17        68.65816
498.61        68.57475
499.05        68.34501
499.49        68.47818
499.93         68.6814
500.37         68.8526
500.82         68.8803
501.26        68.88367
501.70        68.87122
502.14        68.85286
502.58        68.85247
503.02         68.8487
503.46        68.84818
503.90        68.89996
504.34        68.96294
504.78        68.92128
505.22        68.74537
505.66        68.53338
506.10        68.37994
506.54        68.19963
506.98        67.96808
507.42        68.45102
507.86        68.44539
508.30        68.24817
508.74        68.43259
509.18        68.29535
509.62        68.15047
510.06        68.04875
510.50        68.02745
510.94        68.04172
511.38        68.06674
511.82        68.08836
512.26        68.09637
512.70        68.10355
513.14        68.11311
513.58        68.12698
514.02        68.14613
514.46        68.16187
514.90        68.18122
515.34        68.21982
515.78        68.27319
516.22        68.33039
516.66        68.36478
517.10        68.33405
517.54        68.23344
517.98        68.08553
518.42        67.91599
518.86        67.76497
519.30        67.65203
519.74        67.57117
520.18        67.53631
520.62        67.56384
521.06        67.65324
521.50        67.80375
521.93        67.98071
522.37          68.105
522.81        68.16222
523.25        68.15456
523.69        68.12883
524.13        68.16585
524.57        68.27458
525.01        68.42493
525.45        68.54185
525.89        68.50538
526.32        68.29192
526.76        67.97202
527.20        67.63132
527.64        67.40584
528.08         67.3329
528.52        67.36938
528.96        67.47396
529.40        67.58043
529.83        67.65712
530.27        67.72797
530.71        67.77444
531.15        67.77463
531.59        67.72921
532.03        67.63693
532.46        67.51581
532.90        67.44724
533.34        67.43569
533.78        67.42656
534.22        67.40242
534.66        67.41596
535.09        67.41142
535.53        67.24538
535.97        66.95992
536.41        66.79642
536.85        66.77963
537.28        66.78114
537.72        66.80669
538.16        66.91647
538.60        67.09602
539.04        67.32156
539.47        67.51373
539.91        67.59551
540.35        67.53777
540.79        67.37072
541.22        67.16049
541.66        67.03773
542.10        67.02726
542.54        67.09185
542.97        67.17101
543.41        67.20347
543.85        67.15652
544.29        67.05716
544.72        66.92501
545.16        66.82844
545.60        66.78076
546.04        66.78033
546.47         66.8057
546.91        66.86939
547.35        66.97092
547.79        66.95483
548.22        66.87902
548.66        67.17741
549.10        67.74554
549.53        67.70735
549.97        67.16122
550.41         66.8334
550.84        66.82352
551.28        66.90887
551.72        67.01884
552.15         67.0182
552.59        66.90974
553.03        66.83039
553.46        66.92989
553.90        66.78267
554.34        66.76422
554.77        66.66985
555.21        66.63822
555.65         66.6199
556.08        66.73951
556.52        66.82246
556.96        66.86933
557.39        66.99965
557.83        67.15072
558.27        66.95972
558.70         66.5032
559.14        66.30692
559.57         66.3675
560.01        66.33921
560.45        66.24282
560.88        66.34375
561.32        66.62576
561.75        66.85562
562.19        66.99178
562.63        66.96428
563.06        66.81213
563.50        66.76794
563.93        66.78554
564.37        66.76501
564.80        66.74088
565.24        66.67356
565.68        66.42009
566.11        67.13882
566.55        66.41618
566.98        66.24918
567.42        66.07449
567.85        66.14944
568.29         66.4562
568.72        66.77285
569.16        67.15166
569.60        67.31129
570.03        67.43656
570.47        67.71349
570.90        68.27042
571.34        67.21242
571.77         67.9178
572.21        68.05417
572.64         67.6492
573.08        68.01173
573.51        67.20724
573.95        67.28848
574.38        67.87464
574.82        67.87336
575.25        67.36259
575.69        67.89735
576.12        67.91435
576.56        67.32318
576.99        66.83891
577.42        67.54617
577.86        67.50004
578.29        68.54343
578.73        68.27837
579.16        68.09289
579.60        67.53883
580.03        67.41561
580.47        67.38331
580.90        68.22726
581.33        68.24836
581.77        68.48442
582.20         68.1693
582.64        68.70248
583.07        68.28587
583.51        67.90929
583.94        67.25764
584.37        67.68845
584.81        67.77126
585.24        67.90839
585.68        67.58699
586.11        68.00718
586.54        67.99735
586.98        67.32053
587.41        67.01562
587.85        67.33696
588.28        67.34061
588.71        67.28275
589.15        66.85468
589.58        67.21808
590.01         66.8698
590.45        66.75193
590.88        67.56262
591.31        67.39703
591.75        66.80114
592.18        66.33214
592.61         66.1586
593.05        67.37364
593.48         67.8645
593.91        67.84962
594.35        67.36796
594.78        66.70461
595.21        66.24451
595.65        66.66104
596.08        67.90608
596.51         67.8611
596.94        67.10824
597.38        66.71626
597.81        66.87173
598.24        67.48324
598.68        66.95897
599.11        66.66751
599.54        67.90144
599.97        67.35757
600.41        67.08065
600.84        66.48737
601.27        67.02136
601.70        67.00445
602.14        67.19224
602.57        67.00545
603.00         66.8596
603.43        66.06091
603.87        67.03986
604.30        67.21364
604.73        67.34199
605.16        66.58312
605.60         66.7071
606.03        66.40829
606.46        66.14815
606.89        66.32845
607.32        66.80927
607.76        66.08296
608.19        66.65056
608.62        66.62264
609.05        66.59798
609.48        66.47269
609.92        67.15522
610.35        66.66354
610.78        66.32374
611.21        66.60067
611.64        66.37249
612.07        66.68665
612.50        66.69561
612.94        66.74635
613.37         66.6785
613.80        66.35278
614.23        65.77429
614.66        65.70295
615.09        66.10541
615.52        66.42506
615.96        66.47955
616.39        66.63601
616.82        66.92934
617.25        66.16195
617.68        65.72174
618.11        66.23641
618.54        66.22405
618.97        66.43763
619.40        66.26861
619.84        66.30966
620.27        65.96439
620.70        66.00107
621.13        66.17776
621.56         65.7011
621.99        64.86021
622.42        64.78271
622.85        64.88323
623.28        64.85715
623.71        65.14382
624.14        65.06217
624.57        65.82827
625.00        65.93195
625.43        65.88866
625.86         65.7751
626.29        65.77394
626.72        65.06821
627.15        65.62666
627.58        65.33665
628.01        65.23989
628.44        65.74987
628.87        65.34886
629.30         65.3044
629.73        65.11753
630.16        65.37061
630.59        65.26717
631.02        65.42625
631.45        65.58801
631.88        65.68821
632.31        65.70151
632.74        65.65643
633.17        65.57046
633.60        65.45307
634.03        65.32333
634.46        65.17721
634.89        65.03978
635.32        64.96746
635.75        64.97303
636.18        64.97147
636.61        64.96941
637.04         65.0166
637.47        65.10535
637.89        65.21078
638.32        65.27325
638.75         65.2617
639.18        65.16952
639.61        65.01091
640.04        64.84142
640.47        64.74989
640.90        64.75871
641.33        64.84721
641.76        64.97086
642.18        65.06017
642.61         65.0709
643.04        65.02943
643.47        64.96949
643.90        64.94552
644.33         64.9697
644.76        65.02506
645.18        65.07318
645.61        65.03675
646.04        64.91206
646.47        64.73075
646.90        64.55774
647.33        64.48013
647.75         64.4924
648.18        64.63488
648.61         64.8779
649.04        64.90807
649.47        64.64679
649.89        65.18696
650.32        64.81044
650.75        64.76225
651.18        64.61984
651.61        64.73251
652.03        65.07043
652.46        65.27529
652.89        65.27557
653.32        65.20962
653.74        65.24541
654.17        64.75024
654.60        64.99052
655.03         65.0921
655.46        64.58876
655.88        64.44869
656.31        66.74757
656.74        69.41903
657.16        70.08629
657.59        70.75388
658.02        66.68766
658.45        66.05486
658.87        65.19756
659.30        65.65363
659.73        64.81787
660.15        66.10612
660.58        64.94638
661.01        64.85342
661.44        64.72411
661.86         64.5645
662.29         64.3356
662.72        64.82117
663.14        64.74339
663.57        64.72307
664.00        64.49224
664.42        64.52132
664.85        64.82462
665.27         65.1324
665.70        65.31414
666.13        65.35713
666.55        65.24288
666.98        64.90224
667.41        64.42946
667.83        64.40608
668.26          64.208
668.69         64.3303
669.11        64.51784
669.54        64.67683
669.96        64.77515
670.39         64.8382
670.82        64.89204
671.24        64.94773
671.67        65.00719
672.09        65.04174
672.52        65.06397
672.94        65.05795
673.37        65.03035
673.80         64.9844
674.22        64.93481
674.65         64.8679
675.07        64.80522
675.50         64.7394
675.92         64.6827
676.35        64.64015
676.77        64.61453
677.20        64.60158
677.62        64.59956
678.05         64.6032
678.47         64.6078
678.90        64.62151
679.32        64.63058
679.75         64.6269
680.17        64.60338
680.60        64.56227
681.02        64.53017
681.45        64.53416
681.87        64.58979
682.30        64.71012
682.72        64.86128
683.15         64.8736
683.57        64.77827
684.00        64.74793
684.42        64.81764
684.85        64.90922
685.27        65.01565
685.70         65.2019
686.12         65.3879
686.54        65.45308
686.97        65.37775
687.39        65.16275
687.82        64.84929
688.24        64.79698
688.66        64.60677
689.09        64.59869
689.51        64.63959
689.94        64.70109
690.36        64.77058
690.78        64.84555
691.21        64.93418
691.63         65.0291
692.06        65.12592
692.48        65.22379
692.90        65.27863
693.33        65.23191
693.75        65.08251
694.17        64.82924
694.60        64.57188
695.02        64.50103
695.44         64.6264
695.87        64.83986
696.29        65.05679
696.71        65.08234
697.14        64.93144
697.56        64.80824
697.98        64.77873
698.41        64.78207
698.83        64.81985
699.25        64.99051
699.68        65.19192
700.10         65.2646
700.52        65.15796
700.94        64.93701
701.37        64.70456
701.79        64.63112
702.21        64.74778
702.64        64.98392
703.06         65.2569
703.48        65.41441
703.90         65.4098
704.33        65.29189
704.75        65.10625
705.17        64.91647
705.59        64.76215
706.01        64.63083
706.44        64.54118
706.86         64.5575
707.28        64.67615
707.70        64.83873
708.12         65.0277
708.55        65.29828
708.97        65.58348
709.39        65.64689
709.81        65.51498
710.23        65.47655
710.66        65.55502
711.08        65.59964
711.50        65.57854
711.92        65.53412
712.34        65.47007
712.76        65.39555
713.19        65.31347
713.61         65.2627
714.03        65.24149
714.45        65.24673
714.87        65.30524
715.29         65.4581
715.71        65.69588
716.13        65.98735
716.56        66.24261
716.98        66.39989
717.40        66.39579
717.82        66.26169
718.24        66.03064
718.66         65.7593
719.08        65.49385
719.50        65.24677
719.92        65.06346
720.34        65.00539
720.76         65.0773
721.19        65.23706
721.61        65.47929
722.03        65.73946
722.45        65.97556
722.87        66.18562
723.29         66.3037
723.71        66.23317
724.13        65.97488
724.55        65.57211
724.97        65.14585
725.39        64.90136
725.81        64.89391
726.23        65.04682
726.65        65.28088
727.07        65.60585
727.49         65.7382
727.91        65.90089
728.33        66.02873
728.75        66.13809
729.17        66.22952
729.59        66.27938
730.01        66.30087
730.43        66.32327
730.85        66.34995
731.27        66.37611
731.69         66.3762
732.10        66.30624
732.52        66.16386
732.94        65.97713
733.36        65.80529
733.78        65.63687
734.20        65.48435
734.62        65.51157
735.04        65.90359
735.46        65.39957
735.88        65.96447
736.30         66.0251
736.72          66.164
737.13        66.31931
737.55        66.43494
737.97        66.67243
738.39         66.9079
738.81        66.63718
739.23        66.01768
739.65        65.96622
740.06        66.42605
740.48        66.63102
740.90        66.53343
741.32        66.58949
741.74        66.82149
742.16        66.96608
742.57        67.01022
742.99         67.0091
743.41         66.9534
743.83        66.81146
744.25        66.59192
744.67        66.29096
745.08        66.01492
745.50         65.9142
745.92        66.02689
746.34        66.31251
746.75        66.62491
747.17        66.71003
747.59        66.52155
748.01        66.13555
748.42        65.72298
748.84        65.55883
749.26        65.70419
749.68        66.06475
750.09        66.48612
750.51        66.71384
750.93        66.67266
751.35        66.49944
751.76        66.27622
752.18        66.02369
752.60        65.76003
753.01        65.87713
753.43        65.65282
753.85        65.62467
754.27        65.58755
754.68        65.58675
755.10          65.631
755.52         65.7374
755.93        65.89454
756.35        66.06168
756.77         66.2711
757.18        66.43515
757.60        66.53208
758.02        66.83557
758.43        67.28921
758.85        66.54061
759.26        66.84448
759.68        66.07941
760.10        65.48019
760.51        65.60365
760.93        66.40819
761.34        66.72456
761.76        66.49548
762.18        66.54237
762.59        66.89037
763.01        66.97828
763.42         66.8978
763.84        66.90002
764.26        67.02248
764.67        67.26005
765.09        67.50177
765.50        67.24689
765.92        66.63902
766.33        66.28083
766.75        66.18401
767.16        66.06821
767.58         65.9153
768.00        65.91537
768.41        66.07746
768.83        66.40173
769.24        66.73622
769.66        66.73447
770.07        66.46206
770.49        66.20508
770.90        66.14345
771.32         66.6574
771.73        67.52807
772.15        67.84559
772.56        67.53053
772.97        67.03854
773.39        66.58706
773.80        66.35379
774.22         66.4015
774.63        66.72844
775.05         67.1276
775.46        67.33032
775.88        67.22986
776.29        66.93464
776.70         66.5982
777.12        66.48786
777.53        66.67525
777.95        67.02937
778.36        67.41742
778.77        67.58601
779.19        67.49015
779.60        67.24209
780.02         66.9229
780.43        66.73022
780.84        66.73957
781.26        66.61723
781.67         66.4724
782.09        67.06349
782.50        68.09737
782.91        68.17071
783.33        67.36054
783.74        67.05155
784.15        67.31077
784.57        67.33231
784.98        67.14535
785.39        67.14708
785.81         67.3569
786.22        67.71119
786.63        68.09583
787.04        68.27957
787.46        68.23508
787.87        68.03844
788.28        67.80008
788.70         67.6547
789.11        67.62193
789.52        67.68561
789.93        67.80193
790.35        67.88834
790.76        67.92744
791.17        67.93695
791.58        67.93891
792.00        67.90328
792.41        67.84141
792.82        67.87908
793.23         67.9826
793.65        67.76035
794.06        67.38464
794.47        67.65465
794.88        68.37376
795.29        68.59622
795.71        68.23534
796.12        67.81179
796.53        67.49731
796.94        67.38921
797.35        67.56147
797.76        67.98538
798.18        68.46407
798.59        68.72049
799.00        68.65546
799.41         68.3545
799.82         67.9659
800.23        67.74191
800.64        67.75046
801.06        67.87492
801.47        68.07353
801.88        68.18785
802.29        68.16591
802.70        68.07018
803.11        67.92017
803.52        67.73701
803.93         67.5627
804.34        67.39704
804.75        67.30375
805.17         67.4412
805.58        67.86337
805.99        68.29889
806.40        68.67701
806.81        69.34903
807.22        70.02999
807.63        69.67625
808.04        68.51468
808.45        67.87466
808.86        67.90725
809.27         67.9398
809.68        67.87715
810.09        67.86649
810.50        67.87775
810.91        67.88152
811.32        67.94171
811.73        68.15015
812.14         68.5069
812.55        68.96577
812.96        69.38609
813.37        69.51618
813.78        69.29284
814.19        68.81582
814.60        68.23988
815.01        67.76751
815.42         67.4547
815.83        67.25616
816.24        67.16059
816.65        67.14079
817.05        67.19269
817.46        67.31372
817.87        67.49581
818.28        67.67256
818.69        67.82283
819.10        67.92374
819.51        68.02795
819.92        68.24165
820.33        68.56766
820.74        68.96514
821.14        69.29111
821.55        69.31604
821.96        69.00987
822.37        68.45414
822.78        67.84973
823.19        67.53529
823.60        67.61181
824.00        68.01529
824.41        68.53898
824.82        68.91931
825.23        69.04984
825.64        69.00667
826.04        68.88156
826.45        68.78714
826.86        68.78503
827.27        68.83759
827.68        68.90497
828.08        68.96034
828.49        68.93586
828.90        68.85459
829.31         68.7907
829.72        68.85728
830.12        69.08996
830.53        69.40358
830.94        69.62766
831.35         69.4315
831.75        68.78317
832.16        67.78898
832.57        66.78224
832.97        66.25915
833.38        66.34038
833.79        66.85995
834.20        67.58681
834.60        68.15009
835.01        68.42916
835.42         68.5565
835.82        68.59301
836.23        68.56805
836.64        68.54807
837.04        68.47688
837.45        68.45383
837.86        68.72178
838.26        69.32799
838.67        70.16248
839.08        70.96857
839.48         71.2321
839.89        70.81794
840.29        69.91133
840.70        68.92764
841.11        68.29474
841.51         68.1452
841.92        68.33775
842.33        68.76241
842.73        69.22859
843.14        69.54585
843.54        69.81298
843.95        70.03806
844.35        70.29104
844.76         70.5535
845.17        70.77222
845.57        70.87367
845.98        70.72655
846.38        70.34629
846.79        69.79596
847.19         69.2078
847.60        68.76424
848.00        68.53875
848.41        68.46416
848.81        68.53934
849.22        68.66422
849.62        68.83802
850.03        69.07928
850.43        69.33606
850.84         69.4576
851.24        69.45958
851.65        69.28596
852.05        69.16035
852.46        69.37384
852.86        69.95776
853.27        70.78323
853.67        71.48304
854.07        71.66949
854.48        71.25826
854.88        70.40671
855.29        69.32893
855.69        68.55769
856.10        68.21814
856.50        68.25935
856.90        68.49171
857.31        68.60075
857.71        68.53568
858.12        68.33383
858.52          68.133
858.92        68.03975
859.33        68.06808
859.73        68.19463
860.13        68.29588
860.54        68.21238
860.94        67.95238
861.34        67.56393
861.75        67.16191
862.15        66.96932
862.55          67.021
862.96        67.21614
863.36          67.504
863.76         67.7124
864.17        67.76461
864.57        67.73935
864.97        67.59458
865.38        67.27254
865.78        66.81995
866.18         66.2554
866.58        65.73278
866.99        65.52969
867.39        65.73439
867.79        66.24813
868.19        66.91263
868.60         67.4577
869.00         67.8261
869.40           68.06
869.80         68.1708
870.21        68.18771
870.61        68.19736
871.01        68.14359
871.41        68.02347
871.81        67.84389
872.22        67.60667
872.62        67.30879
873.02        67.05293
873.42        66.99139
873.82        67.14309
874.22        67.46506
874.63         67.7468
875.03        67.67205
875.43         67.1795
875.83        66.38712
876.23        65.56779
876.63        65.13996
877.03        65.21046
877.44         65.6398
877.84        66.23722
878.24        66.68121
878.64        66.80882
879.04        66.56501
879.44        66.18715
879.84        66.14604
880.24        66.49196
880.64        67.03451
881.04        67.45347
881.44        67.26451
881.84        66.39446
882.24        65.06012
882.65        63.69456
883.05        62.94717
883.45        62.98937
883.85        63.63616
884.25        64.59862
884.65        65.36851
885.05        65.75508
885.45        65.88862
885.85        65.88415
886.25        65.92511
886.65        66.07354
887.05        66.24706
887.45        66.39111
887.85        66.44861
888.25        66.39567
888.65        66.25426
889.04        66.08652
889.44        66.00171
889.84        66.00224
890.24         66.0656
890.64        66.06838
891.04        65.81436
891.44        65.29335
891.84        64.60407
892.24        63.94514
892.64        63.59856
893.04        63.63242
893.44        63.97738
893.83        64.50522
894.23        64.94365
894.63        65.21958
895.03        65.36813
895.43        65.49073
895.83        65.76707
896.23        66.21081
896.63        66.72237
897.02        67.11015
897.42        67.11311
897.82        66.69514
898.22        66.00335
898.62        65.23329
899.01        64.65572
899.41        64.37555
899.81          64.307
900.21        64.42751
900.61        64.69262
901.00         65.0481
901.40        65.48822
901.80        65.90165
902.20        66.10247
902.59        66.06426
902.99        65.82615
903.39        65.48693
903.79        65.22846
904.18        65.09513
904.58        65.02421
904.98        65.04034
905.38        65.17961
905.77        65.43372
906.17        65.84769
906.57         66.2098
906.96         66.1623
907.36        65.64874
907.76        64.77934
908.15         64.0088
908.55        64.04691
908.95        65.02147
909.34         66.7037
909.74         68.4743
910.14        69.38224
910.53        69.14119
910.93        68.07496
911.33        66.62021
911.72        65.45335
912.12        64.86397
912.52        64.65807
912.91        64.70472
913.31        64.82845
913.70        64.94958
914.10        65.10546
914.49        65.37157
914.89        65.75302
915.29        66.24686
915.68        66.82455
916.08        67.23122
916.47         67.1504
916.87        66.56918
917.26        65.58664
917.66        64.65673
918.05        64.31886
918.45        64.67363
918.84        65.60207
919.24        66.67259
919.64        67.24207
920.03        67.13032
920.42         66.5032
920.82        65.75256
921.21        65.43554
921.61        65.67651
922.00        66.32704
922.40        67.08177
922.79        67.54808
923.19        67.55693
923.58        67.27808
923.98        66.88602
924.37        66.56342
924.77        66.39119
925.16        66.25469
925.55        66.16444
925.95         66.1331
926.34        66.16523
926.74        66.26665
927.13        66.31201
927.52        66.02085
927.92        65.42014
928.31        64.59756
928.70        63.84204
929.10        63.57013
929.49        63.84502
929.89        64.47636
930.28        65.32706
930.67        66.03694
931.07        66.43346
931.46        66.69564
931.85        66.69305
932.24        66.27684
932.64        65.53699
933.03        64.49834
933.42        63.62221
933.82         63.5849
934.21        64.48228
934.60        66.15575
934.99        68.04039
935.39        69.08745
935.78        69.02285
936.17        68.05073
936.56        66.68517
936.96        65.75843
937.35        65.51079
937.74        65.69829
938.13        66.00443
938.53        65.95249
938.92        65.43514
939.31        64.68507
939.70         63.9313
940.09        63.45424
940.49        63.30116
940.88        63.38575
941.27        63.65183
941.66        64.00304
942.05        64.37796
942.44         64.8158
942.84        65.24648
943.23        65.54359
943.62        65.69025
944.01        65.66832
944.40        65.60756
944.79        65.75642
945.18        66.13748
945.57        66.65083
945.97        67.03249
946.36        66.93924
946.75        66.27365
947.14        65.25536
947.53        64.12375
947.92        63.19003
948.31        62.57076
948.70        62.18847
949.09         62.1134
949.48        62.45816
949.87        63.18925
950.26         64.2442
950.65        65.36267
951.04        66.10595
951.43        66.33699
951.82        66.14229
952.21        65.67877
952.60        65.24228
952.99        64.96635
953.38        64.80361
953.77        64.76194
954.16        64.85459
954.55         65.0483
954.94         65.3062
955.33        65.61372
955.72        65.91454
956.11        66.15958
956.50         66.3797
956.89        66.33923
957.28        65.68265
957.66        64.41177
958.05        62.71778
958.44        61.16747
958.83        60.55778
959.22        61.01218
959.61        62.33683
960.00        63.93223
960.39        64.66251
960.78        64.19699
961.16        62.87547
961.55        61.40126
961.94        60.72955
962.33        61.09219
962.72        62.23626
963.11        63.70077
963.49         64.6249
963.88        64.61462
964.27        63.93655
964.66        63.12192
965.04        62.97382
965.43        63.61754
965.82        64.86083
966.21         66.1113
966.60        66.26572
966.98        65.03865
967.37        62.94412
967.76        60.82989
968.15        59.72755
968.53         59.8317
968.92        60.87621
969.31        62.32088
969.69        63.09609
970.08         62.7664
970.47        61.68527
970.86        60.55461
971.24        60.36401
971.63        61.31687
972.02        63.13462
972.40        65.17467
972.79        65.93002
973.17        65.03532
973.56        63.04206
973.95        60.89013
974.33        59.78056
974.72         59.9659
975.11        61.07774
975.49        62.64153
975.88         63.6697
976.26        63.82968
976.65        63.37239
977.04        62.64946
977.42        62.16583
977.81         62.0449
978.19        62.08773
978.58        62.25055
978.96        62.45316
979.35        62.61761
979.74        62.81685
980.12        63.05357
980.51        63.07884
980.89        62.97444
981.28        62.77129
981.66        62.58571
982.05        62.56501
982.43        62.76182
982.82        63.10316
983.20        63.70333
983.59        64.64834
983.97        65.96556
984.35        67.56458
984.74        68.97435
985.12        69.66182
985.51        69.43375
985.89        68.47938
986.28        67.33338
986.66        66.73949
987.04        66.94619
987.43        67.71603
987.81        68.73888
988.20        69.26991
988.58        69.07555
988.96        68.31664
989.35        67.28584
989.73        66.36939
990.12        65.66796
990.50        65.12193
990.88        64.53682
991.27        63.64407
991.65         62.4737
992.03        61.20159
992.42        60.25566
992.80        60.16305
993.18        61.00457
993.56        62.61673
993.95        64.44404
994.33        65.58574
994.71        65.61318
995.10        64.89778
995.48        63.88613
995.86        63.36935
996.24        63.54475
996.63         63.9706
997.01        64.76402
997.39        65.77637
997.77        66.80562
998.15        68.04061
998.54        68.77776
998.92         67.8371
999.30        65.31016
999.68        61.61232
1000.06        58.27851
1000.45        57.52152
1000.83        59.84309
1001.21        64.80612
1001.59        70.84237
1001.97        74.16751
1002.35        73.32113
1002.73        69.52245
1003.12        64.88922
1003.50        62.11454
1003.88         61.9244
1004.26        63.36964
1004.64        65.91832
1005.02        68.39513
1005.40        70.08228
1005.78        71.55782
1006.16        72.18716
1006.54        70.91592
1006.92        67.90362
1007.30        63.47981
1007.69        59.43534
1008.07         58.2668
1008.45        60.63397
1008.83        66.13278
1009.21        73.06952
1009.59        77.12328
1009.97        76.33627
1010.35        71.96504
1010.73        66.20451
1011.11        62.23777
1011.49        60.88467
1011.86        61.09478
1012.24        62.15136
1012.62        63.16762
1013.00        63.83677
1013.38        64.49803
1013.76        65.18622
1014.14        65.72235
1014.52        65.98918
1014.90        65.90554
1015.28        65.31833
1015.66        64.13593
1016.04         62.4203
1016.41        60.22416
1016.79        58.21597
1017.17        57.62415
1017.55        58.71294
1017.93        61.12063
1018.31        63.76014
1018.69        65.08699
1019.06        64.79428
1019.44        63.13577
1019.82        60.97033
1020.20        60.35782
1020.58        61.87295
1020.95        64.44054
1021.33        66.91806
1021.71        67.91457
1022.09        67.24277
1022.46        65.54527
1022.84        62.72214
1023.22        59.13334
1023.60        55.59062
1023.97        52.08941
1024.35        50.01243
1024.73        50.69583
