SpectraSmart Spectrum 2.9.0.0
--------- Device Information -----------
Spectrum Name :  反射率_0
Saving Time :  2024/04/26 23:17:44
Spectro-Module Model Name : SE2030-DUVN
Spectro-Module Serial Number : OS361AC55029948
Wavelength Start : 200
Wavelength End : 1025
Wavelength Unit : Wavelength(nm)
Spectrum Unit : Reflectance(%)
-----------Spectrum Setting ------------
Integration Time : 20ms
Average : 10
Boxcar : 0
Background removal :  enabled
linearity correction :  enabled
SC :  disabled
Intensity correction :  disabled
DWT denoise :  enabled
savitzky-golay :  disabled
FFT :  disabled
Running average :  disabled
Kalman :  disabled
High pass :  disabled
---------------BEGIN--------------------
Wavelength(nm)             Reflectance(%)
200.29               0
200.75        55.29209
201.21        55.38956
201.67        55.57338
202.13        55.81524
202.58        56.05419
203.04         56.4472
203.50        57.37223
203.96        59.31707
204.42         62.3346
204.88         66.3703
205.34          69.394
205.80         68.3544
206.26        63.30176
206.72         55.9229
207.18         49.6218
207.64         46.9996
208.10        48.04604
208.55        53.08484
209.01        60.48962
209.47        62.81644
209.93         57.3897
210.39        49.58906
210.85        44.36647
211.31        44.15311
211.77        49.53692
212.23        64.44905
212.69        103.1295
213.14        167.6027
213.60        162.5893
214.06        115.5151
214.52        84.34489
214.98         70.6418
215.44        65.00304
215.90        61.91067
216.36         60.1459
216.81        58.61166
217.27        57.22399
217.73        57.38936
218.19        58.87539
218.65        59.37868
219.11         58.4909
219.57         56.7099
220.02        56.95223
220.48        62.58855
220.94        74.32341
221.40        94.32353
221.86        121.2975
222.32        135.6178
222.77        122.8265
223.23        97.43958
223.69        74.67179
224.15          62.506
224.61        58.60959
225.06        58.48312
225.52        60.24994
225.98        61.96309
226.44        63.17822
226.90        64.66886
227.36        65.85867
227.81        65.57537
228.27        63.96882
228.73        61.29662
229.19         58.9496
229.65        58.62663
230.10        60.30091
230.56        63.43384
231.02        66.56795
231.48        67.37137
231.93         65.4962
232.39        62.26941
232.85        59.09203
233.31        57.79399
233.77        58.56918
234.22        60.74486
234.68         63.4718
235.14        65.54447
235.60        66.55709
236.05        66.94223
236.51        66.85194
236.97        66.69618
237.43        66.69641
237.88        66.68794
238.34        66.75792
238.80        67.44398
239.26        68.98592
239.71         71.9439
240.17        75.85683
240.63         79.6182
241.08        82.49287
241.54        83.83154
242.00         84.9836
242.46        89.18422
242.91        99.19077
243.37        116.4988
243.83        142.1309
244.28        165.8735
244.74         170.439
245.20        154.2432
245.66        131.2691
246.11        114.7951
246.57        106.0458
247.03        101.3977
247.48        97.56473
247.94        90.74702
248.40        82.69515
248.85        76.00375
249.31        72.05318
249.77        70.77396
250.22        71.50718
250.68        73.74866
251.14        77.24261
251.59        80.35062
252.05        81.93278
252.51        82.98785
252.96        82.61461
253.42        80.69435
253.88         77.8437
254.33        74.12202
254.79         72.6573
255.25        75.94094
255.70        83.27505
256.16        93.39278
256.62        101.8525
257.07        102.0251
257.53        95.88058
257.99        87.72136
258.44        80.86262
258.90        78.23924
259.35        78.49712
259.81        80.53262
260.27        82.63133
260.72        82.83353
261.18        81.37145
261.63        78.78144
262.09        76.48084
262.55        75.27884
263.00        74.97873
263.46        75.31566
263.91        75.29683
264.37        74.13223
264.83        71.80958
265.28        68.79299
265.74        66.05572
266.19        64.38853
266.65        63.95307
267.11        64.29024
267.56        64.85278
268.02        64.80019
268.47         63.8996
268.93        62.47625
269.38        60.81634
269.84         59.4281
270.30        58.42508
270.75        57.60311
271.21        56.89394
271.66        56.13412
272.12        55.27616
272.57        54.36652
273.03        53.38419
273.48        52.25636
273.94        51.06559
274.39         49.7943
274.85        48.62175
275.31        47.62242
275.76        46.77732
276.22        46.10958
276.67        45.49292
277.13        44.87387
277.58        44.16195
278.04        43.40515
278.49        42.59737
278.95        41.87774
279.40        41.20806
279.86        40.65168
280.31         40.0512
280.77        39.32297
281.22        38.42604
281.68        37.48574
282.13        36.64334
282.59        36.20373
283.04        36.14198
283.50        36.37896
283.95        36.66813
284.41        36.63967
284.86        36.21697
285.32         35.5733
285.77        34.90686
286.22         34.5747
286.68        34.63573
287.13         34.9115
287.59        35.28152
288.04        35.50637
288.50        35.54477
288.95        35.45123
289.41        35.26834
289.86        34.96883
290.32        34.62944
290.77        34.24198
291.22        33.94659
291.68        33.93461
292.13        34.23438
292.59        34.83937
293.04        35.62937
293.50        36.42231
293.95        37.16375
294.40        37.90853
294.86        38.77794
295.31        39.95157
295.77        41.46114
296.22         43.2074
296.68        45.05141
297.13        46.76469
297.58        48.30935
298.04        49.76942
298.49        51.24651
298.95         52.9243
299.40        54.82955
299.85        56.89205
300.31           59.06
300.76        61.22783
301.21        63.36984
301.67        65.54389
302.12        67.68752
302.58        69.80357
303.03        71.84868
303.48        73.85001
303.94        75.91228
304.39          78.118
304.84         80.5076
305.30        83.05621
305.75        85.60414
306.20        88.00785
306.66        90.24809
307.11        92.32959
307.57        94.34823
308.02        96.32099
308.47        98.29698
308.93        100.2597
309.38        102.1961
309.83        104.2339
310.29        106.3806
310.74        108.5852
311.19        110.6956
311.65        112.4229
312.10        113.6744
312.55        114.5302
313.00        115.1966
313.46        116.0104
313.91        117.0404
314.36        118.2388
314.82        119.4637
315.27        120.4991
315.72        121.2555
316.18        121.8277
316.63        122.2973
317.08         122.852
317.53        123.5389
317.99        124.2811
318.44        124.9904
318.89        125.4931
319.35         125.746
319.80        125.8203
320.25        125.8241
320.70        125.9286
321.16        126.1835
321.61        126.5927
322.06        127.0676
322.51        127.4696
322.97        127.7417
323.42        127.9252
323.87        128.1433
324.32        128.6186
324.78        129.3277
325.23        130.3148
325.68        131.2639
326.13        131.5559
326.59        131.0587
327.04          130.46
327.49        129.3392
327.94        129.0541
328.39         129.528
328.85        130.5437
329.30        131.8759
329.75        132.8149
330.20        133.1256
330.66        132.9571
331.11        132.6296
331.56        132.5653
332.01        132.9048
332.46        133.4855
332.92        134.0714
333.37        134.4809
333.82        134.5709
334.27         134.483
334.72        134.3534
335.17        134.3705
335.63         134.599
336.08        135.0523
336.53        135.6975
336.98        136.5384
337.43        137.5331
337.88        138.6252
338.34        139.7181
338.79        140.8041
339.24         141.756
339.69         142.559
340.14        143.0604
340.59        143.0466
341.05         142.577
341.50        141.7769
341.95        140.9937
342.40        140.7439
342.85        141.1543
343.30        142.0678
343.75        143.2883
344.20        144.4648
344.66        145.4382
345.11        146.2787
345.56        146.8995
346.01         147.185
346.46         147.165
346.91        146.8796
347.36        146.5336
347.81        146.4815
348.26        146.7842
348.72        147.3135
349.17        147.9248
349.62        148.4177
350.07         148.703
350.52        148.8732
350.97        148.7827
351.42        148.2073
351.87         147.181
352.32        145.7963
352.77        144.4839
353.22        143.8735
353.67        144.0609
354.13        144.8609
354.58        145.8115
355.03        146.0758
355.48        145.4343
355.93        144.1236
356.38        142.6291
356.83        141.6884
357.28        141.4478
357.73        141.6464
358.18        141.8566
358.63        141.4066
359.08        140.1461
359.53        138.3416
359.98        136.3757
360.43        134.7819
360.88        133.6909
361.33        132.9341
361.78        132.2858
362.23        131.4014
362.68         130.205
363.13        128.8401
363.58        127.4754
364.03        126.3463
364.48        125.4939
364.93        124.7997
365.38        124.1506
365.83        123.3882
366.28        122.4661
366.73        121.4577
367.18        120.3782
367.63        119.2392
368.08        118.0686
368.53        116.8643
368.98        115.7187
369.43        114.7787
369.88        114.0656
370.33        113.5422
370.78        113.0758
371.23        112.4458
371.68        111.5909
372.13        110.5567
372.58        109.4735
373.03        108.5536
373.48         107.839
373.93        107.2594
374.38        106.6676
374.83        105.8404
375.28        104.7423
375.72         103.447
376.17        102.1808
376.62        101.1465
377.07         100.411
377.52        99.93453
377.97        99.59216
378.42        99.19881
378.87        98.69843
379.32        98.09834
379.77        97.57101
380.22         97.3681
380.67        97.49432
381.11        97.89779
381.56        98.14263
382.01        97.62231
382.46         96.2793
382.91        94.40219
383.36         92.5733
383.81        91.58516
384.26        91.55223
384.71        92.19759
385.15        93.09755
385.60        93.51375
386.05        93.22301
386.50        92.45379
386.95        91.41863
387.40        90.45545
387.85        89.69782
388.29         88.9848
388.74         88.4229
389.19        87.93788
389.64        87.50375
390.09        87.15084
390.54         86.8434
390.98        86.48549
391.43         86.1057
391.88         85.7058
392.33        85.33553
392.78        85.02895
393.23        84.78188
393.67        84.65388
394.12          84.644
394.57        84.30859
395.02        83.75605
395.47         83.6302
395.91         83.8687
396.36        83.76208
396.81        83.30294
397.26        82.90063
397.71        82.58318
398.15        82.21596
398.60        81.90604
399.05        81.53349
399.50         81.1646
399.95        81.09687
400.39        81.24821
400.84        81.06152
401.29        80.53145
401.74        80.11393
402.18        79.82275
402.63         79.2907
403.08        78.65924
403.53        78.32267
403.97        78.31494
404.42        78.49976
404.87        78.72321
405.32         78.7585
405.76        78.54176
406.21        78.17847
406.66        77.77666
407.11        77.55468
407.55        77.58665
408.00        77.65604
408.45        77.72276
408.90        77.94654
409.34        78.15112
409.79        77.81313
410.24        77.08302
410.68        76.63414
411.13        76.53358
411.58        76.42029
412.03        76.24445
412.47        76.09925
412.92        75.95621
413.37        75.83031
413.81        75.73482
414.26        75.75926
414.71        75.88248
415.15        76.10532
415.60           76.35
416.05        76.56842
416.49        76.73781
416.94        76.85553
417.39         76.9361
417.83         76.9894
418.28        77.03356
418.73        77.06795
419.17        77.10967
419.62        77.19106
420.07        77.29637
420.51        77.37955
420.96        77.46441
421.41        77.46999
421.85        77.36049
422.30        77.39614
422.74        77.42573
423.19        77.02032
423.64        76.29197
424.08        76.01147
424.53        76.25311
424.98        76.44648
425.42        76.56219
425.87        77.20219
426.31        78.07081
426.76        77.82667
427.21        76.69407
427.65        76.33983
428.10        76.78672
428.54        76.91917
428.99        76.79748
429.44        76.72891
429.88        76.86123
430.33        77.79509
430.77        79.06509
431.22        79.47244
431.66          78.973
432.11        78.32236
432.56         77.8121
433.00        77.65893
433.45        78.03857
433.89        78.74435
434.34        79.01387
434.78        80.39255
435.23        78.73514
435.67        77.19936
436.12        77.61693
436.57        77.94492
437.01        78.73902
437.46        79.01108
437.90        78.73411
438.35        78.50143
438.79        78.43242
439.24         78.4733
439.68        78.60152
440.13        78.94804
440.57        79.46114
441.02        79.52898
441.46        79.20625
441.91        79.78673
442.35        80.81447
442.80        80.34924
443.24        78.79546
443.69         78.8885
444.13        80.43092
444.58        81.04659
445.02        80.63121
445.47        80.48254
445.91        80.70367
446.36        80.91012
446.80         81.0949
447.24        81.35152
447.69        81.63192
448.13        81.73013
448.58        81.83489
449.02         81.7954
449.47        81.70147
449.91        81.57138
450.36        81.45387
450.80        81.31213
451.25        81.22684
451.69        81.26206
452.13        81.43626
452.58        81.71579
453.02         81.9958
453.47        82.11414
453.91        82.02133
454.36        81.77969
454.80         81.4752
455.24        81.13519
455.69        80.79929
456.13        80.67005
456.58        80.80469
457.02        80.16212
457.46        80.01984
457.91          80.245
458.35        80.87115
458.79        80.86565
459.24        80.27918
459.68        79.41742
460.13        78.57849
460.57        78.40242
461.01        79.11086
461.46        78.60011
461.90        79.83599
462.34        80.50111
462.79         80.1119
463.23        80.11753
463.68        80.36475
464.12        80.23357
464.56         79.7315
465.01        78.88767
465.45        77.94957
465.89        77.71851
466.34         78.0687
466.78        78.35223
467.22        78.50456
467.67        77.95753
468.11        78.03104
468.55        78.05305
468.99        78.32167
469.44        78.30788
469.88        78.01591
470.32         77.7746
470.77        77.62824
471.21        77.51291
471.65        77.42506
472.10        77.38515
472.54         77.3919
472.98        77.38333
473.42        77.32724
473.87        77.45977
474.31        77.61359
474.75        77.12695
475.20        76.25228
475.64        76.09673
476.08        76.61256
476.52        76.70564
476.97        76.31961
477.41        76.22723
477.85        76.53181
478.29        76.18034
478.74        76.55399
479.18        76.73392
479.62        76.67278
480.06        76.66838
480.50        76.55022
480.95        76.52784
481.39        76.62389
481.83        76.24424
482.27        75.91212
482.72        76.78085
483.16        76.11346
483.60        76.26995
484.04        76.40385
484.48        76.59509
484.93        76.52369
485.37          76.681
485.81        75.94399
486.25        75.61508
486.69        76.51616
487.14        78.42017
487.58        76.43781
488.02        76.84227
488.46        75.57768
488.90        75.47854
489.34        76.54163
489.79        77.93185
490.23        76.92499
490.67        76.33181
491.11        75.65151
491.55        75.46362
491.99        75.69856
492.43        75.57576
492.88        75.11774
493.32        74.95029
493.76         75.0957
494.20        75.19155
494.64        75.20487
495.08        75.29237
495.52        75.40344
495.96        75.34869
496.41        75.16492
496.85         75.1109
497.29        75.08934
497.73        75.21855
498.17        74.57315
498.61        74.56052
499.05         74.8478
499.49        74.95482
499.93        74.63214
500.37        74.75017
500.82        75.16026
501.26        75.17847
501.70        74.86762
502.14        74.91576
502.58        75.30469
503.02        75.49771
503.46         75.4684
503.90        75.51052
504.34        75.58841
504.78        75.50275
505.22        75.23875
505.66        74.90765
506.10         74.6441
506.54        74.42474
506.98        74.23679
507.42        74.70997
507.86        75.06709
508.30        74.65414
508.74        75.16609
509.18        75.07543
509.62        74.97717
510.06        74.85641
510.50        74.75267
510.94        74.62833
511.38        74.49647
511.82        74.43475
512.26        74.45268
512.70         74.5426
513.14        74.67085
513.58        74.77409
514.02        74.83244
514.46        74.85463
514.90        74.86524
515.34         74.9094
515.78        74.98994
516.22        75.08076
516.66        75.14491
517.10        75.12679
517.54        75.01947
517.98        74.85649
518.42        74.66698
518.86        74.49431
519.30         74.3615
519.74        74.25883
520.18        74.21271
520.62        74.26003
521.06        74.39886
521.50        74.61966
521.93        74.85857
522.37        74.98531
522.81        74.97991
523.25         74.8688
523.69        74.72921
524.13        74.68971
524.57        74.77251
525.01        74.92648
525.45        75.08031
525.89        75.11882
526.32        75.00652
526.76        74.81388
527.20        74.57446
527.64        74.34354
528.08        74.15262
528.52        73.98831
528.96        73.88786
529.40        73.90919
529.83        74.04734
530.27        74.28757
530.71        74.54502
531.15        74.69031
531.59         74.6888
532.03        74.56686
532.46        74.37512
532.90        74.25141
533.34        74.21767
533.78        74.20034
534.22        74.16238
534.66         74.1376
535.09        74.06399
535.53        73.79829
535.97        73.42182
536.41         73.2486
536.85        73.31229
537.28         73.4537
537.72        73.63223
538.16        73.83935
538.60        74.03987
539.04        74.22782
539.47        74.35704
539.91        74.40907
540.35        74.36706
540.79        74.24221
541.22        74.07759
541.66        73.96988
542.10        73.93788
542.54        73.96429
542.97        74.00364
543.41        74.02355
543.85        74.00134
544.29        73.93401
544.72        73.83861
545.16        73.83889
545.60        73.90581
546.04        73.90697
546.47        73.84918
546.91        73.85353
547.35        73.91924
547.79        73.96234
548.22        73.98284
548.66        74.02776
549.10         74.1554
549.53        74.24533
549.97        74.29258
550.41        74.16556
550.84        73.92838
551.28        73.85118
551.72         73.9323
552.15        73.85181
552.59         74.0519
553.03        73.76192
553.46        74.19716
553.90        74.24188
554.34         74.2087
554.77        74.13506
555.21        74.07136
555.65        74.05631
556.08         74.0788
556.52        74.11792
556.96         74.1311
557.39        74.14938
557.83        74.16045
558.27        73.98868
558.70        73.68254
559.14        73.59536
559.57        73.69991
560.01        73.65752
560.45        73.51019
560.88        73.68952
561.32        74.12611
561.75          74.245
562.19        74.07996
562.63        73.99473
563.06         74.0325
563.50        74.09714
563.93        74.11534
564.37        74.16019
564.80        74.32887
565.24        74.13487
565.68        73.54826
566.11        74.22331
566.55        73.51476
566.98        73.48559
567.42        73.43701
567.85        73.49857
568.29        73.82309
568.72        74.15837
569.16        74.51205
569.60        75.00076
570.03        74.78136
570.47        74.95189
570.90        75.10837
571.34        74.49392
571.77        75.02077
572.21        75.40602
572.64        74.96332
573.08        75.83265
573.51        74.83434
573.95        74.72285
574.38        74.85871
574.82        75.13964
575.25        74.61447
575.69        74.66721
576.12        75.09858
576.56        74.18455
576.99        74.42575
577.42        74.50991
577.86        74.89355
578.29        75.61371
578.73        75.58903
579.16        75.45424
579.60        74.92928
580.03        74.67115
580.47        74.73608
580.90        75.54041
581.33        75.43771
581.77        75.77183
582.20         75.3073
582.64        75.94898
583.07         75.3474
583.51        75.11961
583.94        74.89868
584.37        74.84906
584.81        75.10296
585.24        75.17818
585.68        74.95442
586.11        75.34225
586.54        75.58282
586.98        74.10648
587.41        73.96935
587.85        74.70203
588.28        74.62926
588.71        74.45428
589.15        73.93745
589.58        74.77758
590.01         74.2522
590.45        73.98031
590.88        75.13046
591.31        75.03504
591.75        74.43623
592.18        73.99791
592.61        73.92752
593.05        74.64526
593.48        75.19917
593.91        75.03896
594.35        75.17098
594.78        74.40261
595.21        73.49124
595.65        73.82202
596.08        75.50999
596.51        74.97172
596.94         74.5169
597.38        74.07338
597.81        74.36332
598.24        74.83366
598.68        74.57858
599.11        74.28928
599.54        75.49181
599.97        75.17752
600.41        74.76875
600.84         74.1949
601.27        74.85468
601.70         74.4231
602.14        74.68896
602.57        74.41163
603.00        74.31026
603.43        73.48357
603.87         74.4888
604.30        74.76399
604.73         74.5414
605.16        73.99485
605.60        73.90351
606.03        73.69924
606.46        73.58256
606.89        73.87312
607.32        74.42786
607.76        73.99852
608.19         74.4079
608.62        74.31685
609.05        74.04057
609.48        74.00865
609.92         75.1194
610.35        74.49192
610.78        73.71945
611.21         74.0519
611.64        73.89664
612.07        74.34077
612.50        74.32234
612.94        74.40022
613.37         74.3845
613.80        74.21294
614.23        73.52096
614.66        73.49734
615.09        73.99226
615.52        74.17405
615.96        73.87688
616.39        74.25259
616.82         74.3773
617.25        73.63351
617.68        73.47501
618.11        73.81644
618.54        73.94932
618.97        74.11819
619.40        73.94326
619.84        74.14093
620.27        73.99034
620.70        73.98737
621.13        73.92583
621.56        73.42246
621.99        72.73268
622.42        72.56485
622.85        73.10143
623.28        72.47953
623.71        72.80942
624.14        73.34879
624.57        73.33665
625.00        73.32584
625.43        73.58781
625.86        73.60542
626.29        73.65415
626.72        72.92976
627.15        73.47395
627.58        73.36791
628.01        73.05588
628.44        73.51035
628.87        73.23057
629.30        72.83815
629.73        72.48875
630.16        73.11933
630.59        73.08007
631.02        73.33721
631.45        73.35246
631.88        73.43753
632.31        73.56413
632.74        73.55379
633.17        73.43163
633.60        73.30557
634.03        73.20061
634.46         73.0812
634.89        72.95798
635.32        72.86778
635.75        72.82079
636.18        72.73763
636.61        72.64796
637.04         72.6376
637.47        72.70889
637.89        72.82941
638.32        72.92266
638.75        72.93523
639.18        72.85296
639.61        72.69597
640.04        72.53203
640.47        72.46941
640.90        72.53336
641.33        72.69463
641.76        72.89098
642.18        73.02652
642.61         73.0471
643.04        72.98744
643.47        72.89845
643.90        72.86328
644.33        72.90019
644.76        72.98194
645.18        73.05602
645.61        73.01868
646.04         72.8633
646.47        72.63725
646.90         72.4138
647.33        72.29185
647.75        72.26798
648.18        72.38126
648.61        72.62399
649.04        72.68436
649.47        72.47744
649.89        73.22745
650.32        72.94843
650.75        72.93494
651.18        72.71094
651.61        72.70504
652.03        72.95525
652.46        73.20353
652.89         73.2902
653.32        73.20471
653.74        73.14271
654.17        72.17742
654.60        72.73461
655.03        73.04495
655.46        72.40841
655.88        71.60049
656.31        74.41824
656.74        76.52987
657.16        77.44964
657.59        78.41164
658.02        74.21017
658.45        74.14432
658.87        73.15891
659.30        73.43267
659.73         72.9565
660.15        74.35063
660.58        73.00315
661.01        72.95046
661.44        72.98331
661.86        72.75162
662.29        72.24593
662.72        72.70374
663.14        72.68607
663.57        72.61779
664.00        72.22205
664.42        72.23171
664.85        72.66909
665.27        73.14384
665.70        73.46771
666.13        73.58309
666.55        73.45243
666.98        73.01673
667.41        72.41134
667.83        72.33472
668.26         72.1012
668.69        72.25272
669.11        72.49871
669.54        72.72649
669.96        72.89137
670.39        73.02309
670.82        73.13384
671.24        73.20486
671.67        73.23605
672.09        73.21073
672.52        73.16097
672.94        73.09779
673.37        73.03885
673.80        72.97642
674.22         72.9398
674.65        72.93314
675.07        72.97491
675.50         73.0491
675.92        73.11976
676.35        73.11189
676.77        73.01669
677.20        72.85674
677.62        72.68874
678.05          72.604
678.47        72.61794
678.90        72.70596
679.32        72.82144
679.75        72.88201
680.17        72.85924
680.60        72.84795
681.02        72.86014
681.45         72.7567
681.87         72.6344
682.30        72.80777
682.72        73.21921
683.15        73.44613
683.57        73.44415
684.00        73.35529
684.42        73.26201
684.85        73.27338
685.27        73.40331
685.70        73.59924
686.12        73.77158
686.54        73.83131
686.97        73.76094
687.39        73.56105
687.82        73.28689
688.24        73.17252
688.66        73.27609
689.09        73.06789
689.51        73.35935
689.94        73.36345
690.36        73.31386
690.78        73.21103
691.21        73.12616
691.63        73.11723
692.06        73.19099
692.48         73.4456
692.90         73.5921
693.33        73.62269
693.75         73.4512
694.17        73.09969
694.60        72.73544
695.02        72.63299
695.44        72.81396
695.87         73.2287
696.29        73.69174
696.71         73.6023
697.14        73.06561
697.56        72.89281
697.98        73.13004
698.41        73.20934
698.83        73.12437
699.25         73.2785
699.68        73.56641
700.10        73.68011
700.52        73.55822
700.94        73.30833
701.37        73.05497
701.79        73.00191
702.21        73.18674
702.64        73.52165
703.06        73.89397
703.48        74.10498
703.90        74.09666
704.33        73.93018
704.75        73.68506
705.17         73.4794
705.59        73.36453
706.01        73.30991
706.44         73.3027
706.86        73.35154
707.28        73.43807
707.70        73.54221
708.12        73.66945
708.55        73.86514
708.97        74.08964
709.39        74.18529
709.81        74.15148
710.23        74.14532
710.66        74.17258
711.08        74.15778
711.50        74.07365
711.92        73.94403
712.34        73.77986
712.76        73.59422
713.19        73.41882
713.61        73.34523
714.03        73.37954
714.45        73.50751
714.87        73.70695
715.29        73.94268
715.71        74.18768
716.13        74.42462
716.56        74.61497
716.98        74.80004
717.40        74.93319
717.82        75.01196
718.24        74.99218
718.66        74.80895
719.08        74.48337
719.50        74.07116
719.92        73.69445
720.34        73.53207
720.76        73.61977
721.19        73.87845
721.61        74.25636
722.03        74.60377
722.45        74.85044
722.87        75.02074
723.29        75.07757
723.71        74.97018
724.13        74.71363
724.55        74.33242
724.97        73.93001
725.39        73.68978
725.81        73.66255
726.23        73.78117
726.65         73.9776
727.07        74.29597
727.49        74.42693
727.91         74.6117
728.33        74.77322
728.75        74.92474
729.17        75.06167
729.59        75.15923
730.01        75.21979
730.43        75.25668
730.85        75.26743
731.27        75.24623
731.69        75.18327
732.10        75.05704
732.52        74.87358
732.94        74.67638
733.36        74.50703
733.78        74.28545
734.20        74.01793
734.62        73.99247
735.04        74.33134
735.46        73.83997
735.88        74.69968
736.30        75.09691
736.72        75.58424
737.13        75.90674
737.55        75.95115
737.97        75.97453
738.39        75.92966
738.81        75.35201
739.23        74.48936
739.65        74.44671
740.06         75.1136
740.48        75.44996
740.90        75.37678
741.32         75.5148
741.74        75.84908
742.16        76.02837
742.57        76.02487
742.99        75.90474
743.41        75.72881
743.83        75.58054
744.25        75.48938
744.67        75.42185
745.08         75.3883
745.50        75.37582
745.92        75.38688
746.34        75.42671
746.75        75.46796
747.17        75.44668
747.59        75.36047
748.01        75.22752
748.42        75.09435
748.84        75.03669
749.26        75.06995
749.68        75.16611
750.09        75.28805
750.51        75.37173
750.93         75.3982
751.35        75.41383
751.76        75.39264
752.18        75.28738
752.60        75.09766
753.01        74.86904
753.43        74.63796
753.85        74.49577
754.27        74.47422
754.68        74.55753
755.10        74.71432
755.52        74.88646
755.93        75.03707
756.35        75.16628
756.77        75.31256
757.18        75.40126
757.60        75.42142
758.02        75.63322
758.43        76.00551
758.85        75.29964
759.26        75.54808
759.68        75.02448
760.10        74.76408
760.51        74.87276
760.93        75.35923
761.34         75.6778
761.76        75.74223
762.18        75.81182
762.59         75.9204
763.01        75.90462
763.42        75.87776
763.84        75.85233
764.26        75.87009
764.67        76.03283
765.09        76.25909
765.50        76.04218
765.92        75.52885
766.33        75.31418
766.75        75.37424
767.16        75.35739
767.58        75.20127
768.00         75.1762
768.41        75.32362
768.83        75.48348
769.24        75.60236
769.66        75.82699
770.07        76.04733
770.49        75.73624
770.90        75.12529
771.32        75.36275
771.73        76.31856
772.15        76.66724
772.56        76.34554
772.97        76.06209
773.39        75.94727
773.80        75.90908
774.22        75.96284
774.63          76.166
775.05        76.41441
775.46        76.53645
775.88        76.47132
776.29        76.27702
776.70        76.07045
777.12        76.07253
777.53        76.33069
777.95        76.72067
778.36        77.10774
778.77        77.22599
779.19        77.04524
779.60        76.69052
780.02        76.25095
780.43        75.98602
780.84        75.99831
781.26        75.78799
781.67        75.51489
782.09        76.39881
782.50         77.9545
782.91        77.87718
783.33        76.37801
783.74        75.80598
784.15        76.28835
784.57         76.6157
784.98        76.66609
785.39        76.49879
785.81        76.25618
786.22        76.64096
786.63        77.50227
787.04        77.87355
787.46        77.69841
787.87        77.47425
788.28        77.33089
788.70        77.22618
789.11        77.17626
789.52        77.24756
789.93        77.36471
790.35        77.33979
790.76         77.1796
791.17         77.0241
791.58        76.95047
792.00        76.90067
792.41        76.89668
792.82        77.15065
793.23         77.5311
793.65        77.34864
794.06        76.79356
794.47         76.9442
794.88        77.64884
795.29        77.91876
795.71        77.52697
796.12        77.23499
796.53        77.12208
796.94         77.1069
797.35        77.23832
797.76        77.59428
798.18        78.02377
798.59        78.27545
799.00         78.2656
799.41        78.07608
799.82        77.82516
800.23        77.70608
800.64        77.76797
801.06        77.91216
801.47        78.09499
801.88        78.14362
802.29        78.01077
802.70        77.75703
803.11        77.45083
803.52         77.1965
803.93        77.05846
804.34        77.02217
804.75        77.08045
805.17        77.29809
805.58        77.71329
805.99        77.98695
806.40        78.13745
806.81        78.90271
807.22        79.92236
807.63        79.57219
808.04         78.1173
808.45        77.42368
808.86        77.66492
809.27        77.86446
809.68        77.86629
810.09        77.86603
810.50        77.81858
810.91         77.6778
811.32        77.57577
811.73        77.71627
812.14        78.12523
812.55          78.735
812.96        79.33717
813.37        79.54368
813.78        79.25613
814.19        78.62895
814.60        77.88744
815.01        77.33004
815.42        77.03532
815.83        76.92121
816.24        76.95489
816.65        77.06848
817.05        77.22649
817.46        77.42751
817.87        77.64371
818.28        77.76916
818.69        77.78596
819.10        77.69196
819.51        77.57901
819.92        77.63107
820.33         77.8836
820.74        78.27161
821.14        78.66707
821.55        78.85577
821.96        78.78996
822.37        78.54131
822.78        78.20886
823.19        77.96063
823.60        77.85928
824.00        77.88503
824.41        77.95424
824.82        78.04643
825.23        78.13079
825.64        78.22678
826.04        78.32334
826.45        78.35014
826.86        78.31512
827.27        78.23676
827.68        78.14218
828.08        78.11315
828.49        78.11685
828.90        78.15057
829.31        78.23895
829.72        78.42218
830.12         78.7194
830.53        79.05237
830.94        79.32404
831.35        79.31904
831.75        79.01523
832.16        78.45932
832.57        77.84556
832.97        77.45647
833.38         77.3737
833.79        77.50641
834.20        77.77032
834.60        78.02116
835.01        78.20898
835.42        78.42009
835.82        78.63355
836.23        78.72221
836.64        78.69931
837.04        78.53633
837.45        78.41389
837.86        78.70824
838.26        79.49497
838.67        80.62387
839.08        81.67435
839.48        81.85264
839.89        80.98686
840.29        79.38282
840.70        77.74931
841.11        76.89894
841.51        77.02929
841.92        77.88176
842.33        79.10653
842.73          80.064
843.14        80.39233
843.54        80.32369
843.95        80.06203
844.35        80.00433
844.76        80.23415
845.17        80.60329
845.57         80.9359
845.98        80.93617
846.38         80.5681
846.79        79.94826
847.19        79.28917
847.60        78.88203
848.00        78.82288
848.41        78.99695
848.81        79.29137
849.22        79.42432
849.62        79.35964
850.03        79.16364
850.43        78.94343
850.84         78.7899
851.24        78.79156
851.65        78.83495
852.05        78.99487
852.46        79.27341
852.86        79.63932
853.27        80.07178
853.67        80.38893
854.07        80.47273
854.48        80.28259
854.88        79.89995
855.29        79.37173
855.69        78.95164
856.10        78.66016
856.50        78.53057
856.90         78.5321
857.31        78.62714
857.71        78.84212
858.12         79.1062
858.52         79.4026
858.92        79.57018
859.33        79.54491
859.73        79.40857
860.13        79.14622
860.54        78.77567
860.94        78.38561
861.34        77.97243
861.75        77.63847
862.15        77.59557
862.55        77.84915
862.96        78.29176
863.36        78.83011
863.76        79.19321
864.17        79.27206
864.57        79.16546
864.97        78.84089
865.38        78.26913
865.78        77.52219
866.18        76.61548
866.58        75.77468
866.99        75.39983
867.39        75.61925
867.79        76.31632
868.19        77.22188
868.60        77.88251
869.00        78.20099
869.40        78.24664
869.80        78.14811
870.21         78.1659
870.61        78.43494
871.01        78.78436
871.41        79.02611
871.81        78.91233
872.22         78.4026
872.62        77.59898
873.02        76.73585
873.42        76.19433
873.82        76.09409
874.22        76.33387
874.63        76.69356
875.03        76.83311
875.43        76.64642
875.83        76.24213
876.23        75.79949
876.63        75.58907
877.03        75.68047
877.44        75.96144
877.84        76.30091
878.24        76.47663
878.64         76.3856
879.04        75.98911
879.44        75.51428
879.84        75.37675
880.24         75.6198
880.64         76.0946
881.04         76.4753
881.44        76.25224
881.84        75.34677
882.24        73.96906
882.65        72.57381
883.05        71.84595
883.45        71.96479
883.85        72.74595
884.25        73.84251
884.65        74.65151
885.05        74.96486
885.45        74.92918
885.85        74.77261
886.25        74.85571
886.65        75.25988
887.05        75.84349
887.45        76.38216
887.85          76.533
888.25        76.21651
888.65        75.56632
889.04        74.83171
889.44        74.41302
889.84        74.39149
890.24        74.65385
890.64        74.99265
891.04        75.06479
891.44        74.79524
891.84        74.32976
892.24        73.84489
892.64        73.58736
893.04        73.63276
893.44        73.90676
893.83        74.35706
894.23        74.84425
894.63        75.32204
895.03        75.78586
895.43        76.23761
895.83        76.69026
896.23         77.1056
896.63        77.42081
897.02         77.5207
897.42        77.27306
897.82        76.68378
898.22        75.87401
898.62        74.98011
899.01        74.17477
899.41        73.56187
899.81        73.10757
900.21        72.88174
900.61        72.98305
901.00         73.3875
901.40        74.02839
901.80        74.72027
902.20        75.15785
902.59        75.27143
902.99        75.13671
903.39        74.84449
903.79        74.56338
904.18        74.35844
904.58        74.17699
904.98        74.12156
905.38        74.36123
905.77        74.89478
906.17        75.69898
906.57        76.47688
906.96        76.72034
907.36        76.31287
907.76        75.42635
908.15        74.48806
908.55        74.16131
908.95        74.61245
909.34        75.64602
909.74        76.84367
910.14         77.6051
910.53        77.70481
910.93        77.33929
911.33        76.69757
911.72        76.05401
912.12        75.59488
912.52         75.2552
912.91        74.99767
913.31        74.80207
913.70        74.66389
914.10        74.57352
914.49        74.69624
914.89        75.18665
915.29        76.05682
915.68         77.2306
916.08        78.28474
916.47        78.61195
916.87        78.10764
917.26        76.94547
917.66         75.6711
918.05        74.94572
918.45        74.92937
918.84        75.47734
919.24        76.20932
919.64        76.59453
920.03        76.48147
920.42        76.01591
920.82        75.50925
921.21        75.37503
921.61        75.68749
922.00        76.32953
922.40        77.01508
922.79        77.41891
923.19        77.39737
923.58        77.10467
923.98        76.71272
924.37        76.39002
924.77        76.22499
925.16        76.11244
925.55        76.08768
925.95         76.1983
926.34        76.43757
926.74        76.76108
927.13         76.9923
927.52        76.77145
927.92        76.11361
928.31        75.15667
928.70         74.1754
929.10        73.55611
929.49        73.38698
929.89        73.48103
930.28        73.88717
930.67        74.55113
931.07        75.35451
931.46        76.39354
931.85        77.23328
932.24        77.21921
932.64        76.32571
933.03        74.73119
933.42        73.18629
933.82        72.80569
934.21        73.80614
934.60        75.91108
934.99        78.38448
935.39         79.8718
935.78        79.97854
936.17        78.95628
936.56        77.45003
936.96        76.49615
937.35        76.37992
937.74         76.8036
938.13        77.23716
938.53        76.87731
938.92        75.61106
939.31        73.84579
939.70        72.17904
940.09        71.42157
940.49        71.70875
940.88        72.77472
941.27        74.25679
941.66        75.48568
942.05        76.17909
942.44        76.53696
942.84        76.60413
943.23        76.45824
943.62        76.19038
944.01        75.71063
944.40        75.27601
944.79        75.35925
945.18        76.01481
945.57        77.11217
945.97        78.16937
946.36         78.4361
946.75        77.70309
947.14         76.3196
947.53        74.72433
947.92        73.53284
948.31        72.94431
948.70        72.78114
949.09        73.04865
949.48        73.75237
949.87         74.7944
950.26        76.13394
950.65        77.47555
951.04        78.31892
951.43         78.5104
951.82        78.13876
952.21        77.38942
952.60        76.61866
952.99        76.00958
953.38        75.54734
953.77        75.27493
954.16         75.2421
954.55        75.43284
954.94        75.80627
955.33        76.37592
955.72        77.11844
956.11        77.95964
956.50        78.88966
956.89        79.53469
957.28         79.3173
957.66        78.17408
958.05        76.35423
958.44        74.55836
958.83        73.79568
959.22        74.24359
959.61        75.64793
960.00        77.35304
960.39        78.11631
960.78        77.56583
961.16        76.08841
961.55        74.40743
961.94         73.4634
962.33        73.50137
962.72        74.27903
963.11        75.38242
963.49        76.06807
963.88        75.97232
964.27        75.32953
964.66        74.65897
965.04        74.74753
965.43        75.68819
965.82        77.29465
966.21        78.84622
966.60        78.99809
966.98        77.42199
967.37        74.74249
967.76        72.03175
968.15        70.60622
968.53        70.71049
968.92         72.0044
969.31         73.8407
969.69         74.9152
970.08        74.68348
970.47        73.57929
970.86        72.37651
971.24        72.17355
971.63        73.20243
972.02        75.11806
972.40         77.2747
972.79        78.12099
973.17        77.27535
973.56        75.32374
973.95        73.14088
974.33        71.82711
974.72        71.62863
975.11         72.1811
975.49        73.17588
975.88        73.92332
976.26        74.20267
976.65        74.19862
977.04        74.00368
977.42        73.70321
977.81        73.33239
978.19         72.8037
978.58        72.37344
978.96        72.46319
979.35        73.10397
979.74        74.22542
980.12        75.48977
980.51        76.01205
980.89        75.70689
981.28        74.81925
981.66        73.82069
982.05        73.38062
982.43        73.66805
982.82        74.44288
983.20        75.63139
983.59        76.92879
983.97         78.2412
984.35         79.6116
984.74        80.66821
985.12         81.0493
985.51        80.64138
985.89        79.56366
986.28        78.40392
986.66        78.00729
987.04        78.61233
987.43        79.93607
987.81        81.51837
988.20        82.25377
988.58        81.82407
988.96        80.51385
989.35        78.78239
989.73        77.23044
990.12        76.04348
990.50        75.10052
990.88        74.30265
991.27        73.55037
991.65        72.84795
992.03        72.26065
992.42        71.97034
992.80        72.12913
993.18        72.76753
993.56         73.8469
993.95        74.89436
994.33        75.28629
994.71        74.74697
995.10        73.57722
995.48         72.3983
995.86        72.24628
996.24        73.34138
996.63        75.26026
997.01        77.66282
997.39        79.36257
997.77        79.81782
998.15        79.46263
998.54        78.43829
998.92        76.83092
999.30        74.94433
999.68        72.77964
1000.06        71.08639
1000.45        70.91331
1000.83        72.49548
1001.21        75.68736
1001.59        79.54594
1001.97        81.69933
1002.35        81.27254
1002.73        79.03844
1003.12        76.31268
1003.50          74.714
1003.88        74.72802
1004.26        75.66802
1004.64        77.41362
1005.02        79.60581
1005.40        81.79832
1005.78        84.26277
1006.16        85.82146
1006.54        84.61761
1006.92        80.70031
1007.30        74.78242
1007.69        69.17345
1008.07        67.06386
1008.45        69.28766
1008.83        75.21385
1009.21        82.96233
1009.59        87.74798
1009.97        87.29517
1010.35        82.97656
1010.73        76.89291
1011.11        72.10377
1011.49        69.55626
1011.86        68.33631
1012.24        68.05882
1012.62        68.22258
1013.00        68.60041
1013.38        69.46539
1013.76         70.8072
1014.14         72.2469
1014.52        73.43688
1014.90        74.17529
1015.28        74.27267
1015.66        73.67329
1016.04        72.47656
1016.41        70.79816
1016.79        68.95829
1017.17         67.6792
1017.55         67.2187
1017.93        67.35982
1018.31        67.97627
1018.69        68.85493
1019.06        69.91239
1019.44        71.28822
1019.82        72.48126
1020.20        72.38415
1020.58        70.72974
1020.95        67.84155
1021.33        65.09422
1021.71        63.90635
1022.09        64.49888
1022.46        66.88213
1022.84        70.00118
1023.22          71.247
1023.60        69.65325
1023.97        65.84663
1024.35        62.48281
1024.73        62.71517
