SpectraSmart Spectrum 2.9.0.0
--------- Device Information -----------
Spectrum Name :  反射率_0
Saving Time :  2024/04/26 23:19:53
Spectro-Module Model Name : SE2030-DUVN
Spectro-Module Serial Number : OS361AC55029948
Wavelength Start : 200
Wavelength End : 1025
Wavelength Unit : Wavelength(nm)
Spectrum Unit : Reflectance(%)
-----------Spectrum Setting ------------
Integration Time : 20ms
Average : 10
Boxcar : 0
Background removal :  enabled
linearity correction :  enabled
SC :  disabled
Intensity correction :  disabled
DWT denoise :  enabled
savitzky-golay :  disabled
FFT :  disabled
Running average :  disabled
Kalman :  disabled
High pass :  disabled
---------------BEGIN--------------------
Wavelength(nm)             Reflectance(%)
200.29               0
200.75        40.10132
201.21         40.9458
201.67        41.77374
202.13        42.27811
202.58        42.46334
203.04        42.72278
203.50         43.5047
203.96        45.60439
204.42        49.25016
204.88        53.92457
205.34        58.39738
205.80        60.85669
206.26        60.73258
206.72         58.5681
207.18        55.64263
207.64        52.78514
208.10        49.95465
208.55        47.08719
209.01        43.56046
209.47        40.94266
209.93        40.87806
210.39        42.41471
210.85        45.02086
211.31        49.46466
211.77        57.54729
212.23        74.79293
212.69        115.7363
213.14        178.7571
213.60        165.5636
214.06        112.7562
214.52        79.98183
214.98        66.61572
215.44        62.19365
215.90         61.0418
216.36         61.6524
216.81        62.40414
217.27        62.87518
217.73        64.55343
218.19        65.86513
218.65        61.70256
219.11        53.48969
219.57        45.52575
220.02        41.29697
220.48        42.43756
220.94        48.36818
221.40        60.00817
221.86        76.67136
222.32        86.48947
222.77        80.08437
223.23        65.83536
223.69        52.51166
224.15         44.8618
224.61        41.75361
225.06        40.65144
225.52        40.78141
225.98        41.34991
226.44        42.03991
226.90        43.12951
227.36        44.02575
227.81        43.62506
228.27        42.01675
228.73        39.59718
229.19        37.38679
229.65         36.5605
230.10        37.12973
230.56        38.68594
231.02        40.41289
231.48        41.00509
231.93        40.20426
232.39        38.76423
232.85        37.34906
233.31        36.85615
233.77        37.38718
234.22        38.62375
234.68        40.15105
235.14        41.48018
235.60        42.44089
236.05        43.24057
236.51        43.90877
236.97         44.4553
237.43        44.90448
237.88         45.2143
238.34        45.54675
238.80        46.49394
239.26        48.37084
239.71        51.63646
240.17          55.995
240.63        60.47464
241.08        64.31052
241.54        66.84402
242.00        69.28677
242.46        74.81326
242.91        86.25067
243.37        105.5817
243.83        133.4942
244.28        157.8296
244.74        159.8773
245.20        138.8445
245.66        112.4892
246.11        97.13879
246.57        93.55498
247.03        97.13795
247.48        101.6029
247.94        97.27288
248.40         85.9606
248.85        73.89973
249.31          65.377
249.77         62.1176
250.22        63.28453
250.68        67.99069
251.14        75.01113
251.59        79.44971
252.05        78.60809
252.51        74.99255
252.96        70.67889
253.42        68.12432
253.88        67.29797
254.33        66.71909
254.79        67.52457
255.25        70.33839
255.70         74.7729
256.16        80.76624
256.62        85.48529
257.07        84.75508
257.53        80.20606
257.99        74.40639
258.44        69.86432
258.90        69.05203
259.35        70.67313
259.81        73.77375
260.27        76.41322
260.72        76.25911
261.18        73.72768
261.63        69.79041
262.09        66.23555
262.55        64.29861
263.00        63.81026
263.46        64.27309
263.91         64.6542
264.37         64.0414
264.83         62.3364
265.28        59.98639
265.74        57.80304
266.19        56.41904
266.65        55.97379
267.11        56.06176
267.56        56.24809
268.02        55.88671
268.47        54.80861
268.93        53.28962
269.38        51.56327
269.84        50.03383
270.30        48.80702
270.75          47.749
271.21        46.83478
271.66        45.96233
272.12        45.10099
272.57        44.27468
273.03        43.46383
273.48        42.60835
273.94        41.75442
274.39        40.86335
274.85        40.04028
275.31        39.28926
275.76         38.5875
276.22         37.9752
276.67        37.37904
277.13        36.79625
277.58        36.17256
278.04        35.54453
278.49        34.90572
278.95        34.37281
279.40        33.90358
279.86         33.5373
280.31        33.14354
280.77        32.65282
281.22        32.02097
281.68        31.34901
282.13        30.71645
282.59        30.32294
283.04        30.15605
283.50        30.18035
283.95        30.26471
284.41        30.21558
284.86        29.99438
285.32        29.70229
285.77        29.44402
286.22        29.43338
286.68        29.69728
287.13        30.10788
287.59        30.57351
288.04        30.90824
288.50        31.07815
288.95        31.10766
289.41        31.04536
289.86        30.88597
290.32        30.70491
290.77        30.51301
291.22        30.39568
291.68        30.46026
292.13        30.73505
292.59        31.23364
293.04        31.95683
293.50        32.91002
293.95        34.06288
294.40        35.40521
294.86        36.87731
295.31        38.37739
295.77         39.8802
296.22        41.37457
296.68        42.90442
297.13        44.53172
297.58        46.28247
298.04        48.14248
298.49        50.06271
298.95        51.98751
299.40         53.8858
299.85        55.77872
300.31        57.71412
300.76        59.73627
301.21        61.85846
301.67        64.07178
302.12        66.28107
302.58        68.44369
303.03        70.49387
303.48        72.48151
303.94        74.47314
304.39        76.49194
304.84        78.57655
305.30        80.71355
305.75        82.83134
306.20        84.92185
306.66        86.98945
307.11        89.00742
307.57        90.95931
308.02        92.69427
308.47        94.23242
308.93         95.6104
309.38        96.95031
309.83         98.5747
310.29        100.5277
310.74        102.7027
311.19        104.8052
311.65        106.3211
312.10        107.1193
312.55        107.3612
313.00        107.4175
313.46        107.8648
313.91        108.8152
314.36         110.133
314.82        111.5262
315.27        112.5329
315.72        113.0069
316.18        113.1336
316.63        113.1172
317.08        113.3241
317.53        113.8523
317.99        114.5633
318.44        115.3217
318.89        115.8838
319.35        116.1723
319.80        116.2806
320.25        116.3035
320.70        116.3851
321.16        116.5741
321.61         116.872
322.06        117.2163
322.51        117.5207
322.97        117.7454
323.42        117.9196
323.87        118.1513
324.32         118.638
324.78        119.3602
325.23        120.3313
325.68        121.2311
326.13        121.5497
326.59        121.1837
327.04        120.3275
327.49        119.3917
327.94        119.0614
328.39        119.5053
328.85        120.4912
329.30         121.792
329.75        122.6987
330.20        122.9711
330.66        122.7739
331.11        122.4177
331.56        122.3179
332.01        122.6137
332.46        123.1427
332.92        123.6913
333.37        124.1003
333.82        124.2348
334.27        124.2267
334.72        124.1749
335.17        124.2066
335.63        124.3767
336.08        124.7159
336.53         125.238
336.98        126.0205
337.43        127.0449
337.88        128.2367
338.34        129.4772
338.79        130.7042
339.24        131.7766
339.69        132.6961
340.14         133.309
340.59        133.4048
341.05         133.035
341.50        132.3001
341.95        131.5679
342.40        131.3905
342.85        131.9003
343.30        132.9505
343.75        134.2623
344.20        135.3496
344.66        136.0384
345.11        136.4304
345.56        136.6265
346.01        136.8047
346.46        137.0366
346.91        137.2715
347.36        137.4494
347.81        137.5061
348.26        137.4354
348.72        137.2651
349.17         137.136
349.62        137.2965
350.07        137.7684
350.52        138.4859
350.97        139.1122
351.42        139.1105
351.87        138.3987
352.32        137.1614
352.77        135.8698
353.22        135.2144
353.67        135.3302
354.13        136.0058
354.58        136.8298
355.03        137.0648
355.48        136.5219
355.93        135.4369
356.38        134.2372
356.83        133.5589
357.28        133.5245
357.73        133.8879
358.18        134.2777
358.63        134.1159
359.08        133.2501
359.53        131.8909
359.98         130.314
360.43        128.9037
360.88        127.7701
361.33        126.8043
361.78        125.8812
362.23        124.8183
362.68        123.5894
363.13        122.2933
363.58         121.057
364.03        120.0425
364.48        119.2712
364.93        118.6659
365.38        118.1043
365.83         117.409
366.28        116.5318
366.73        115.5254
367.18        114.4699
367.63        113.4874
368.08        112.6124
368.53        111.8124
368.98        111.0359
369.43        110.1986
369.88        109.2844
370.33        108.3281
370.78         107.393
371.23        106.5875
371.68        105.9343
372.13        105.3812
372.58        104.8676
373.03        104.2956
373.48        103.6236
373.93        102.8789
374.38        102.0463
374.83        101.1137
375.28         100.105
375.72        99.01466
376.17         97.9902
376.62        97.13071
377.07        96.47113
377.52        96.01315
377.97        95.66048
378.42        95.26328
378.87        94.78157
379.32        94.21079
379.77        93.71091
380.22        93.52248
380.67        93.64591
381.11          94.026
381.56        94.25566
382.01        93.76834
382.46        92.50843
382.91        90.75337
383.36        89.01954
383.81        88.00497
384.26        87.81975
384.71        88.22348
385.15        88.89325
385.60        89.25897
386.05        89.13647
386.50        88.69923
386.95        88.05476
387.40        87.37667
387.85         86.7552
388.29        86.07758
388.74        85.51263
389.19        85.08819
389.64        84.79448
390.09          84.615
390.54        84.46979
390.98        84.19406
391.43        83.80148
391.88        83.33675
392.33        82.86214
392.78        82.43922
393.23        82.08305
393.67        81.80318
394.12        81.65292
394.57         81.3745
395.02        81.03255
395.47        81.02425
395.91        81.24886
396.36        81.13381
396.81        80.66872
397.26        80.16322
397.71        79.70078
398.15        79.31108
398.60        79.11447
399.05        78.87354
399.50        78.62547
399.95        78.77017
400.39        79.14309
400.84        78.88381
401.29        78.05581
401.74        77.49992
402.18        77.28969
402.63         76.9218
403.08        76.46945
403.53        76.23258
403.97        76.21983
404.42        76.36284
404.87        76.52018
405.32        76.45523
405.76        76.11263
406.21        75.60088
406.66        75.07036
407.11        74.76192
407.55        74.75359
408.00        74.94619
408.45        75.22001
408.90        75.31681
409.34        75.15323
409.79        74.83147
410.24        74.45894
410.68        74.16058
411.13        73.98703
411.58        73.89046
412.03        73.81022
412.47        73.66251
412.92        73.41263
413.37        73.13256
413.81        72.88097
414.26         72.8046
414.71        72.89664
415.15        73.13806
415.60        73.42226
416.05        73.65051
416.49        73.78008
416.94        73.81435
417.39        73.79382
417.83        73.77427
418.28        73.77583
418.73        73.77571
419.17        73.75343
419.62        73.68456
420.07        73.56203
420.51        73.38293
420.96        73.20954
421.41        73.06807
421.85        72.94604
422.30        72.92423
422.74        72.89065
423.19        72.76189
423.64        72.51129
424.08        72.23646
424.53        72.02734
424.98        72.01892
425.42        72.24089
425.87         72.7059
426.31        73.21465
426.76         73.1993
427.21        72.71458
427.65        72.36575
428.10        72.22387
428.54        72.10562
428.99        72.08292
429.44        71.93269
429.88        71.83054
430.33        72.60368
430.77        73.79343
431.22        74.27215
431.66         73.9084
432.11        73.00236
432.56        71.99401
433.00         71.7896
433.45        72.53498
433.89        73.44141
434.34        73.79458
434.78        74.34607
435.23        73.84621
435.67        71.63718
436.12         72.2267
436.57        72.39652
437.01         73.1977
437.46        73.49713
437.90        73.29211
438.35        72.34688
438.79        72.49423
439.24        72.32341
439.68        72.33769
440.13        72.61565
440.57        73.09983
441.02        73.25826
441.46        73.10168
441.91        73.59851
442.35        74.40495
442.80        74.23427
443.24         73.2986
443.69        73.29314
444.13        74.11715
444.58        74.38544
445.02        74.05408
445.47        73.90867
445.91         74.0182
446.36        74.16591
446.80        74.34326
447.24        74.59672
447.69        74.87237
448.13        75.06392
448.58        75.15895
449.02        75.15339
449.47        75.08265
449.91        74.97462
450.36        74.87129
450.80        74.74406
451.25        74.63315
451.69        74.54052
452.13        74.48507
452.58        74.46022
453.02        74.45028
453.47        74.43514
453.91        74.39789
454.36        74.34845
454.80        74.26172
455.24        74.07458
455.69        73.79971
456.13        73.49757
456.58        73.25835
457.02          72.902
457.46        72.57034
457.91        72.71002
458.35        73.09019
458.79        72.99285
459.24        72.43452
459.68         71.7153
460.13        71.07748
460.57        70.79269
461.01        70.99109
461.46        71.09074
461.90        71.24728
462.34        72.29671
462.79        72.02805
463.23        72.24822
463.68        72.20782
464.12        72.02139
464.56        71.63017
465.01        70.82183
465.45        69.86169
465.89        69.57231
466.34        69.83099
466.78        70.06625
467.22        70.26772
467.67        69.51119
468.11        69.86948
468.55        69.88362
468.99        70.06123
469.44        69.95292
469.88        69.56422
470.32        69.13772
470.77         68.7667
471.21        68.53374
471.65        68.46565
472.10        68.55027
472.54        68.71114
472.98        68.80481
473.42         68.7803
473.87        68.77467
474.31        68.73034
474.75        68.42548
475.20        67.98801
475.64        67.85257
476.08         68.0078
476.52        67.94325
476.97        67.62012
477.41        67.49648
477.85        67.67886
478.29        67.21146
478.74        67.54202
479.18        67.79086
479.62        67.83106
480.06        67.88256
480.50        67.76775
480.95        67.72784
481.39        67.79775
481.83        67.25296
482.27        67.48801
482.72        67.42844
483.16        67.53265
483.60        67.35619
484.04        67.33945
484.48        67.57716
484.93        67.99498
485.37        67.40829
485.81        67.17545
486.25        66.71964
486.69        68.79607
487.14        69.81722
487.58        67.80252
488.02        67.86826
488.46        66.91186
488.90        66.47995
489.34        67.79466
489.79        68.56519
490.23        67.57867
490.67        66.95575
491.11        66.46127
491.55        66.28471
491.99        66.36034
492.43        66.22346
492.88        65.89661
493.32        65.83036
493.76        66.03509
494.20        66.22559
494.64         66.3611
495.08        66.54084
495.52        66.71088
495.96        66.72478
496.41        66.59386
496.85        66.49313
497.29        66.34074
497.73         66.2918
498.17        65.57905
498.61        65.44691
499.05        65.64743
499.49        65.92231
499.93        65.93184
500.37        66.00897
500.82        66.08124
501.26        65.84666
501.70        65.79871
502.14        65.77628
502.58        65.90989
503.02        65.99251
503.46        66.01651
503.90        66.12182
504.34        66.24579
504.78        66.20838
505.22        65.98404
505.66        65.66508
506.10        65.36189
506.54        65.12993
506.98        64.98431
507.42        65.27391
507.86        65.37305
508.30        65.34408
508.74        65.46999
509.18        65.40058
509.62        65.31166
510.06         65.2509
510.50        65.24287
510.94        65.25307
511.38        65.25486
511.82        65.22874
512.26        65.17931
512.70        65.09438
513.14        64.98746
513.58        64.97926
514.02         65.0996
514.46        64.91435
514.90        65.13352
515.34        65.16457
515.78         65.2097
516.22        65.25257
516.66        65.27774
517.10        65.24666
517.54        65.15282
517.98        65.01952
518.42        64.88108
518.86        64.79511
519.30        64.77637
519.74        64.80535
520.18         64.8658
520.62        64.92804
521.06        64.98092
521.50         65.0391
521.93        65.08691
522.37        65.07932
522.81         65.0212
523.25        64.91457
523.69        64.81508
524.13        64.81352
524.57        64.91829
525.01         65.0961
525.45        65.26328
525.89        65.28262
526.32        65.12133
526.76        64.84946
527.20        64.54171
527.64        64.32044
528.08        64.22327
528.52        64.21065
528.96        64.26283
529.40         64.3487
529.83        64.44361
530.27        64.56134
530.71        64.66218
531.15        64.68768
531.59        64.62997
532.03        64.50133
532.46        64.33611
532.90        64.23916
533.34        64.22256
533.78        64.22369
534.22        64.22049
534.66        64.25577
535.09        64.27135
535.53        64.13244
535.97        63.87234
536.41        63.70992
536.85        63.66816
537.28        63.62896
537.72        63.60831
538.16        63.68128
538.60        63.84055
539.04        64.06086
539.47        64.26305
539.91        64.36659
540.35         64.3411
540.79        64.21655
541.22        64.05455
541.66        63.97863
542.10         64.0075
542.54        64.09908
542.97        64.19643
543.41        64.23915
543.85         64.2019
544.29        64.12762
544.72        64.01595
545.16        63.90155
545.60        63.78936
546.04        63.67355
546.47        63.61026
546.91        63.69346
547.35        63.92196
547.79        64.23828
548.22        64.53056
548.66        64.66644
549.10        64.65669
549.53        64.40245
549.97        64.02818
550.41        63.70024
550.84        63.52537
551.28        63.62362
551.72        63.89939
552.15        64.04155
552.59         64.0379
553.03        63.95937
553.46        64.06995
553.90        64.05363
554.34        63.98881
554.77         63.8812
555.21        63.78321
555.65        63.81887
556.08        63.95956
556.52        64.02068
556.96        63.96723
557.39        64.00668
557.83        64.08692
558.27        63.80777
558.70        63.26893
559.14        63.05926
559.57        63.17681
560.01        63.20715
560.45        63.16313
560.88        63.37186
561.32        63.77302
561.75        64.00613
562.19        64.04553
562.63         63.9309
563.06        63.73281
563.50        63.69318
563.93        63.74286
564.37        63.69624
564.80        63.58276
565.24        63.42902
565.68        63.12993
566.11        63.79543
566.55        63.13573
566.98        63.06372
567.42        63.01465
567.85        63.13151
568.29        63.41469
568.72         63.7846
569.16         64.2486
569.60        64.43806
570.03        64.54394
570.47        64.67879
570.90        64.96023
571.34        64.25234
571.77        64.77621
572.21         64.9218
572.64        64.52359
573.08           65.18
573.51        64.26375
573.95         64.4197
574.38        64.95258
574.82        65.30937
575.25         64.7999
575.69         64.7691
576.12        64.92911
576.56        64.20812
576.99        64.44818
577.42        64.87836
577.86        64.75614
578.29         65.8396
578.73        65.68445
579.16        65.61839
579.60        64.70551
580.03        64.65135
580.47        64.51578
580.90        65.32806
581.33        65.37008
581.77        65.53228
582.20        65.65485
582.64        66.16049
583.07        65.57628
583.51        64.85299
583.94        64.81019
584.37        64.70237
584.81        64.91542
585.24        65.07079
585.68        65.05938
586.11         65.1441
586.54         65.3298
586.98        64.28325
587.41        63.89301
587.85        64.37613
588.28        64.54374
588.71         64.4339
589.15        63.85352
589.58        64.38075
590.01        63.84375
590.45        63.62078
590.88        64.39262
591.31        64.30372
591.75        63.83696
592.18        63.56046
592.61        63.68333
593.05        64.02035
593.48        64.87772
593.91        64.73801
594.35        64.61036
594.78        63.87716
595.21        63.16942
595.65        63.56149
596.08        65.01815
596.51        64.82192
596.94        64.05964
597.38        63.59717
597.81         63.7765
598.24        64.48959
598.68        63.94271
599.11        63.79443
599.54        64.64406
599.97        64.36926
600.41        64.24149
600.84        63.78189
601.27        64.24129
601.70        63.91668
602.14        64.08749
602.57        63.81871
603.00        63.69361
603.43        63.08787
603.87        64.20978
604.30        64.31113
604.73        64.20846
605.16        63.04616
605.60        63.48286
606.03        63.26038
606.46        63.07504
606.89        63.45697
607.32        63.88155
607.76        63.53617
608.19        63.83262
608.62        63.48569
609.05        63.16161
609.48        63.06297
609.92        63.99809
610.35        63.95832
610.78        63.17501
611.21        63.30843
611.64        63.36045
612.07        63.57019
612.50        63.29929
612.94        63.27784
613.37        63.17319
613.80        63.32677
614.23        62.74468
614.66          62.831
615.09        63.24861
615.52         63.3662
615.96        63.11964
616.39        63.15058
616.82        63.54797
617.25        62.81943
617.68        63.04948
618.11        63.04717
618.54        63.34108
618.97        63.32888
619.40        63.04289
619.84        62.96477
620.27         62.7886
620.70        62.90295
621.13        63.10334
621.56        62.42276
621.99        61.49942
622.42        61.40275
622.85        61.87427
623.28        61.94036
623.71        61.69865
624.14         62.0612
624.57        62.24711
625.00        62.41269
625.43        62.26689
625.86        62.12094
626.29         62.0819
626.72        61.50818
627.15        61.92477
627.58         61.9631
628.01        61.90559
628.44        62.24872
628.87        62.23524
629.30        61.62493
629.73        61.61492
630.16        61.98226
630.59        61.79659
631.02         62.1078
631.45        62.43325
631.88        62.61637
632.31        62.58675
632.74        62.42137
633.17        62.19787
633.60        62.00114
634.03         61.8727
634.46        61.80756
634.89        61.77074
635.32        61.66453
635.75        61.51113
636.18        61.39563
636.61        61.35494
637.04         61.3672
637.47        61.43531
637.89        61.58788
638.32        61.74968
638.75         61.8255
639.18        61.79104
639.61        61.67383
640.04        61.52615
640.47        61.43211
640.90        61.41632
641.33         61.4595
641.76        61.52191
642.18        61.54554
642.61        61.49568
643.04        61.39929
643.47        61.30476
643.90        61.28734
644.33        61.35883
644.76        61.49243
645.18        61.62286
645.61        61.63029
646.04        61.49896
646.47        61.27174
646.90        61.03111
647.33        60.89776
647.75        60.88335
648.18        61.01383
648.61        61.25653
649.04        61.33296
649.47        61.16785
649.89        61.71907
650.32        61.35488
650.75        61.42788
651.18        61.45459
651.61        61.35158
652.03        61.17839
652.46        61.21488
652.89        61.46293
653.32        61.51404
653.74        61.45284
654.17        61.41768
654.60        61.77661
655.03        61.56724
655.46        61.32701
655.88        61.07679
656.31        63.76247
656.74        66.92017
657.16        67.95477
657.59        68.06792
658.02        63.60339
658.45        62.56082
658.87        61.42569
659.30        62.09414
659.73        61.37829
660.15        62.36803
660.58        61.53608
661.01        61.50948
661.44        61.49228
661.86        61.16844
662.29        60.60389
662.72        61.06467
663.14        61.27991
663.57        61.21891
664.00        60.66079
664.42        60.57898
664.85        61.00249
665.27        61.38783
665.70        61.58563
666.13        61.67471
666.55         61.6287
666.98        61.35351
667.41        60.93952
667.83        60.94278
668.26        60.77244
668.69        60.89553
669.11        61.07545
669.54        61.22303
669.96        61.30648
670.39        61.37189
670.82        61.43058
671.24        61.41909
671.67        61.36333
672.09        61.36077
672.52        61.41261
672.94        61.39074
673.37         61.2983
673.80        61.20001
674.22        61.13005
674.65        61.07822
675.07        61.06777
675.50        61.09105
675.92        61.12329
676.35        61.11124
676.77        61.04799
677.20        60.94604
677.62        60.85014
678.05         60.8326
678.47        60.90338
678.90        61.03935
679.32        61.18512
679.75        61.26704
680.17        61.26193
680.60        61.19525
681.02        61.10612
681.45        61.06244
681.87        61.09592
682.30        61.14651
682.72        61.20394
683.15         61.2925
683.57        61.37624
684.00        61.27966
684.42        61.08334
684.85        61.07761
685.27        61.27488
685.70        61.53565
686.12        61.75755
686.54        61.84922
686.97        61.77518
687.39        61.57113
687.82        61.30591
688.24        61.11297
688.66        61.03383
689.09        61.02845
689.51        61.08767
689.94        61.12236
690.36        61.12592
690.78        61.08551
691.21        61.05539
691.63        61.15797
692.06        61.37953
692.48        61.59025
692.90        61.70948
693.33        61.71345
693.75        61.58696
694.17         61.2857
694.60        60.94881
695.02        60.85606
695.44        61.03346
695.87        61.35407
696.29        61.68337
696.71        61.73591
697.14        61.51178
697.56        61.26555
697.98        61.11026
698.41        61.03234
698.83        61.04907
699.25        61.25054
699.68        61.50325
700.10        61.58405
700.52        61.43075
700.94        61.13415
701.37         60.8285
701.79        60.73257
702.21        60.88849
702.64        61.20241
703.06        61.57633
703.48        61.83522
703.90        61.92051
704.33        61.89177
704.75        61.77247
705.17         61.5911
705.59        61.38562
706.01        61.15065
706.44        60.96094
706.86        60.96609
707.28         61.1749
707.70         61.5206
708.12        61.90862
708.55        62.22046
708.97        62.39006
709.39        62.34765
709.81        62.14451
710.23        61.99093
710.66        61.92925
711.08        61.87556
711.50        61.80682
711.92        61.73802
712.34        61.66877
712.76        61.61755
713.19        61.57407
713.61        61.54778
714.03        61.52918
714.45        61.52038
714.87        61.55144
715.29        61.67192
715.71        61.87945
716.13        62.14294
716.56        62.38739
716.98        62.57152
717.40        62.63597
717.82         62.6004
718.24        62.48133
718.66        62.30864
719.08        62.11528
719.50        61.91693
719.92        61.75045
720.34        61.66678
720.76        61.67433
721.19        61.73779
721.61         61.8752
722.03        62.06484
722.45        62.27858
722.87        62.50745
723.29        62.66974
723.71        62.63741
724.13        62.40068
724.55        62.01246
724.97        61.59803
725.39        61.36527
725.81        61.36879
726.23        61.53267
726.65        61.78384
727.07        62.09049
727.49        62.25552
727.91        62.43129
728.33        62.55965
728.75        62.62161
729.17        62.61779
729.59        62.54181
730.01        62.44297
730.43        62.40945
730.85         62.4591
731.27         62.5681
731.69        62.68739
732.10        62.73427
732.52        62.68914
732.94        62.59241
733.36        62.49475
733.78        62.36201
734.20        62.19704
734.62        62.21851
735.04        62.49606
735.46        61.97855
735.88        62.50589
736.30        62.59355
736.72        62.74265
737.13        62.84983
737.55        62.86306
737.97        62.82516
738.39        62.73586
738.81        62.61555
739.23        62.50697
739.65        62.50035
740.06        62.56343
740.48        62.71797
740.90        62.75761
741.32        62.88106
741.74        63.02539
742.16         63.1376
742.57         63.2063
742.99         63.2333
743.41        63.20945
743.83        63.10107
744.25        62.91598
744.67        62.66371
745.08        62.43952
745.50        62.37011
745.92        62.48949
746.34        62.75945
746.75        63.06221
747.17        63.18966
747.59        63.09867
748.01         62.8503
748.42          62.561
748.84        62.41329
749.26        62.45533
749.68        62.63675
750.09        62.85825
750.51        62.94638
750.93        62.86222
751.35        62.69717
751.76        62.48957
752.18        62.28346
752.60        62.10234
753.01        61.95696
753.43        61.84525
753.85         61.7874
754.27        61.79468
754.68        61.88013
755.10         62.0258
755.52        62.19365
755.93        62.35027
756.35        62.47878
756.77        62.63797
757.18        62.75548
757.60        62.80338
758.02        63.14822
758.43        63.70066
758.85        62.83097
759.26        62.68518
759.68        62.28159
760.10        62.29868
760.51        62.49073
760.93        62.78444
761.34        62.84793
761.76        62.85023
762.18        63.04559
762.59        63.42324
763.01        63.30515
763.42         62.8446
763.84         62.6786
764.26        62.88155
764.67        63.19609
765.09        63.47995
765.50        63.29071
765.92        62.77169
766.33        62.56597
766.75        62.63999
767.16        62.57701
767.58        62.33374
768.00         62.1222
768.41        62.06417
768.83         62.3585
769.24        62.85244
769.66        63.12921
770.07        63.10935
770.49        62.73781
770.90        62.26544
771.32         62.5876
771.73        63.54005
772.15        63.86403
772.56        63.48832
772.97        63.12386
773.39        62.92413
773.80         62.8129
774.22        62.81508
774.63        62.99691
775.05        63.21562
775.46        63.30399
775.88         63.1891
776.29        62.94349
776.70        62.66692
777.12        62.54429
777.53        62.62938
777.95        62.82722
778.36        63.06394
778.77        63.18343
779.19        63.16301
779.60        63.07478
780.02        62.94907
780.43        62.91163
780.84        63.01211
781.26        62.93121
781.67         62.7836
782.09        63.35972
782.50        64.36777
782.91        64.35519
783.33        63.43246
783.74        63.08312
784.15        63.38982
784.57        63.50229
784.98        63.40816
785.39        63.46606
785.81        63.66996
786.22        63.92611
786.63        64.17365
787.04        64.31323
787.46        64.33447
787.87        64.25121
788.28        64.12898
788.70        64.05053
789.11        64.01823
789.52        64.03352
789.93        64.06271
790.35         64.0393
790.76        63.95679
791.17        63.83336
791.58        63.71098
792.00        63.58011
792.41        63.45992
792.82        63.51091
793.23        63.68222
793.65        63.47598
794.06        63.08348
794.47        63.45353
794.88        64.36993
795.29        64.73455
795.71         64.4552
796.12        64.14368
796.53        63.93603
796.94        63.82042
797.35        63.86065
797.76        64.05868
798.18        64.32172
798.59        64.54214
799.00        64.65275
799.41        64.67928
799.82         64.6446
800.23        64.59377
800.64        64.53894
801.06        64.43302
801.47        64.30793
801.88        64.13941
802.29        63.93507
802.70           63.72
803.11        63.53033
803.52        63.41315
803.93        63.39805
804.34        63.48028
804.75        63.64732
805.17        63.92463
805.58        64.33281
805.99        64.63123
806.40        64.81405
806.81        65.36011
807.22        66.02271
807.63        65.70737
808.04        64.62447
808.45        64.08842
808.86        64.23055
809.27        64.38026
809.68        64.40937
810.09        64.40575
810.50        64.32904
810.91        64.16859
811.32        64.03196
811.73        64.08535
812.14        64.35263
812.55        64.76881
812.96        65.19911
813.37        65.39115
813.78        65.27171
814.19        64.94637
814.60        64.51391
815.01        64.10011
815.42        63.74884
815.83        63.41362
816.24        63.16712
816.65        63.14743
817.05        63.38441
817.46        63.82711
817.87        64.30823
818.28        64.51649
818.69        64.38799
819.10        63.98076
819.51        63.52008
819.92        63.42487
820.33        63.79591
820.74        64.48914
821.14        65.23103
821.55         65.5835
821.96        65.43855
822.37        64.93965
822.78        64.28986
823.19        63.83126
823.60        63.68697
824.00        63.77943
824.41        63.98133
824.82        64.17278
825.23        64.28635
825.64         64.3727
826.04        64.44302
826.45         64.4645
826.86        64.45387
827.27        64.41351
827.68        64.34608
828.08        64.29926
828.49        64.23792
828.90        64.15947
829.31        64.12943
829.72        64.25056
830.12        64.55226
830.53        64.96379
830.94        65.31209
831.35        65.25668
831.75        64.75504
832.16        63.90178
832.57        63.02013
832.97         62.6023
833.38         62.7598
833.79        63.31894
834.20        64.04275
834.60        64.55033
835.01        64.72919
835.42        64.73507
835.82        64.63177
836.23        64.45909
836.64        64.29558
837.04        64.07848
837.45        63.97194
837.86        64.31245
838.26        65.15558
838.67        66.37856
839.08        67.57331
839.48        67.95814
839.89        67.34138
840.29        65.99064
840.70        64.53764
841.11        63.72662
841.51        63.74431
841.92        64.36348
842.33         65.2802
842.73        65.94398
843.14        66.05965
843.54        65.84064
843.95        65.50024
844.35        65.42489
844.76        65.69012
845.17        66.15201
845.57        66.60109
845.98        66.68745
846.38        66.35394
846.79        65.72496
847.19        65.02946
847.60        64.60252
848.00        64.54498
848.41        64.72409
848.81        65.01623
849.22        65.13738
849.62        65.04218
850.03        64.81908
850.43        64.54654
850.84        64.27723
851.24        64.09389
851.65        63.91306
852.05        63.88115
852.46        64.15345
852.86        64.72004
853.27        65.49229
853.67        66.18883
854.07        66.53394
854.48        66.45697
854.88        66.06425
855.29        65.45911
855.69        64.96953
856.10        64.65762
856.50        64.52011
856.90        64.48618
857.31        64.44574
857.71         64.4105
858.12         64.3694
858.52        64.37521
858.92        64.39318
859.33        64.39695
859.73        64.41445
860.13        64.38818
860.54        64.25928
860.94         64.0639
861.34         63.8122
861.75        63.57175
862.15        63.49406
862.55        63.58801
862.96        63.77089
863.36        64.01557
863.76        64.19258
864.17        64.24181
864.57        64.23577
864.97        64.10331
865.38        63.74336
865.78        63.19512
866.18        62.48593
866.58        61.83729
866.99        61.63813
867.39        61.99641
867.79        62.78432
868.19        63.72045
868.60        64.35547
869.00        64.58941
869.40          64.488
869.80        64.20934
870.21        64.06837
870.61        64.22107
871.01        64.52554
871.41        64.75074
871.81        64.57286
872.22        63.94725
872.62        62.98883
873.02        62.02917
873.42        61.61793
873.82        61.89318
874.22         62.6809
874.63        63.58093
875.03         63.9758
875.43        63.69668
875.83        62.93423
876.23        62.03061
876.63        61.51597
877.03        61.53211
877.44         61.8933
877.84        62.37003
878.24         62.6037
878.64        62.44394
879.04         61.8805
879.44        61.22157
879.84        61.03838
880.24        61.39923
880.64        62.06934
881.04        62.69758
881.44        62.75055
881.84        62.11455
882.24        60.99943
882.65        59.79966
883.05        59.11192
883.45        59.10371
883.85        59.60898
884.25        60.37856
884.65        60.98093
885.05          61.258
885.45         61.3217
885.85        61.30089
886.25        61.39521
886.65        61.65049
887.05        61.97251
887.45        62.23837
887.85        62.27193
888.25        62.03489
888.65        61.60832
889.04        61.12866
889.44        60.81724
889.84        60.72431
890.24         60.8011
890.64        60.94904
891.04        61.00575
891.44        60.92536
891.84        60.75652
892.24        60.59378
892.64        60.56876
893.04        60.71707
893.44        61.01777
893.83        61.37238
894.23        61.57259
894.63        61.58979
895.03        61.44736
895.43        61.33828
895.83        61.58618
896.23        62.22025
896.63        63.10326
897.02        63.88443
897.42        64.03403
897.82        63.45895
898.22        62.39347
898.62        61.17855
899.01        60.31242
899.41        59.95619
899.81        59.94907
900.21        60.20147
900.61        60.56159
901.00        60.93456
901.40        61.35655
901.80        61.71943
902.20        61.83517
902.59        61.68667
902.99        61.30878
903.39        60.83557
903.79        60.51298
904.18        60.40395
904.58        60.43576
904.98        60.59202
905.38        60.84327
905.77        61.15952
906.17        61.58689
906.57        61.95538
906.96        61.97783
907.36        61.60689
907.76        60.93159
908.15        60.31197
908.55        60.31045
908.95        61.03639
909.34        62.31336
909.74        63.67478
910.14        64.42205
910.53        64.32832
910.93        63.62943
911.33        62.61532
911.72        61.73065
912.12        61.19992
912.52        60.91092
912.91        60.79682
913.31        60.77374
913.70        60.80439
914.10        60.89586
914.49        61.14553
914.89          61.611
915.29        62.28285
915.68        63.10822
916.08        63.77563
916.47        63.85859
916.87        63.30931
917.26        62.26537
917.66         61.1831
918.05        60.61296
918.45        60.67653
918.84         61.2513
919.24          62.002
919.64        62.45227
920.03        62.45525
920.42        62.13173
920.82        61.72796
921.21        61.56907
921.61        61.72532
922.00        62.10857
922.40        62.52827
922.79        62.79586
923.19        62.81593
923.58        62.69495
923.98        62.53069
924.37        62.40522
924.77         62.3638
925.16        62.31659
925.55        62.29646
925.95        62.35237
926.34        62.48051
926.74        62.65027
927.13        62.68968
927.52        62.25495
927.92        61.37774
928.31        60.20965
928.70         59.0837
929.10        58.47029
929.49        58.46914
929.89        58.88887
930.28        59.66362
930.67        60.55454
931.07        61.39304
931.46        62.29424
931.85        62.96899
932.24        63.01009
932.64        62.42002
933.03        61.27189
933.42        60.12339
933.82        59.81071
934.21        60.48971
934.60        61.98105
934.99        63.69173
935.39        64.52632
935.78        64.21303
936.17        62.99857
936.56        61.49694
936.96        60.67546
937.35         60.7818
937.74        61.51173
938.13        62.37294
938.53        62.61191
938.92        62.05346
939.31         61.0039
939.70        59.86127
940.09        59.16283
940.49        59.02363
940.88         59.2975
941.27         59.7997
941.66        60.20395
942.05        60.38916
942.44        60.47166
942.84        60.55363
943.23        60.77005
943.62        61.15623
944.01        61.60793
944.40        62.05976
944.79        62.44481
945.18        62.70847
945.57        62.85058
945.97        62.79353
946.36        62.51414
946.75        62.00404
947.14        61.35672
947.53         60.6718
947.92        60.06554
948.31        59.59628
948.70        59.25638
949.09        59.12803
949.48        59.33802
949.87        59.87597
950.26        60.66255
950.65        61.50243
951.04        62.07972
951.43        62.27668
951.82        62.14586
952.21        61.75972
952.60          61.263
952.99        60.75865
953.38        60.26974
953.77         59.8497
954.16        59.57551
954.55        59.45726
954.94        59.44934
955.33        59.61051
955.72        60.01194
956.11         60.6165
956.50        61.40123
956.89         62.0052
957.28        61.84626
957.66        60.84413
958.05        59.24176
958.44        57.63444
958.83        56.88169
959.22        57.14009
959.61        58.17664
960.00        59.49652
960.39        60.15952
960.78        59.87104
961.16        58.93601
961.55        57.83246
961.94        57.17789
962.33        57.15053
962.72        57.58185
963.11        58.26864
963.49        58.86081
963.88         59.1272
964.27        59.15389
964.66        59.16564
965.04        59.52581
965.43        60.24692
965.82        61.26033
966.21        62.10164
966.60        61.93047
966.98        60.58931
967.37        58.50862
967.76        56.48684
968.15        55.50263
968.53         55.7261
968.92        56.91782
969.31        58.54804
969.69        59.52666
970.08        59.39991
970.47        58.51625
970.86        57.51714
971.24        57.32413
971.63        58.14112
972.02        59.69225
972.40        61.47066
972.79        62.25328
973.17        61.72258
973.56        60.31204
973.95        58.71381
974.33        57.80192
974.72        57.77029
975.11        58.33628
975.49         59.1851
975.88        59.66668
976.26        59.59405
976.65        59.15294
977.04        58.57186
977.42        58.15396
977.81         57.9607
978.19        57.85059
978.58        57.89116
978.96        58.16177
979.35        58.62503
979.74        59.31206
980.12        60.03847
980.51        60.24215
980.89        59.93353
981.28        59.23431
981.66        58.55933
982.05        58.49179
982.43        59.15476
982.82        60.34929
983.20        61.85919
983.59        63.15369
983.97        64.05654
984.35        64.66215
984.74        64.83668
985.12        64.63589
985.51        64.07464
985.89        63.17997
986.28        62.31075
986.66         61.9317
987.04        62.19799
987.43        62.98916
987.81        64.00697
988.20        64.52976
988.58        64.33118
988.96        63.51563
989.35        62.44623
989.73        61.64471
990.12        61.23751
990.50        61.17677
990.88        61.09369
991.27        60.39436
991.65        59.03472
992.03        57.26236
992.42        55.84658
992.80        55.82118
993.18        57.33871
993.56         60.1215
993.95        63.14214
994.33        64.56275
994.71        63.69391
995.10         61.2231
995.48        58.27923
995.86        56.59455
996.24        56.58394
996.63        57.61482
997.01         59.3442
997.39        60.71457
997.77        61.19361
998.15        61.24891
998.54        60.74007
998.92        59.29607
999.30        57.15103
999.68        54.46031
1000.06        52.19958
1000.45        51.78723
1000.83        53.57032
1001.21        57.30901
1001.59        62.06688
1001.97        65.40186
1002.35        66.22103
1002.73        65.13844
1003.12        63.31075
1003.50        62.25134
1003.88        62.45546
1004.26        63.32491
1004.64        64.60172
1005.02        65.74842
1005.40        66.42823
1005.78        67.03334
1006.16        67.12694
1006.54         65.9326
1006.92        63.56714
1007.30        60.34325
1007.69        57.51189
1008.07        56.71772
1008.45         58.4181
1008.83        62.26445
1009.21        67.11941
1009.59        70.08723
1009.97        69.77273
1010.35        67.00043
1010.73        63.01221
1011.11        59.62533
1011.49        57.49409
1011.86        56.17358
1012.24        55.58016
1012.62        55.62471
1013.00        56.18475
1013.38        57.32988
1013.76        58.97168
1014.14        60.59356
1014.52         61.7714
1014.90        62.45627
1015.28        62.37364
1015.66        61.29546
1016.04        59.33153
1016.41        56.57837
1016.79        53.80824
1017.17        52.53886
1017.55        53.13539
1017.93         55.0832
1018.31        57.46347
1018.69        58.93815
1019.06        59.19495
1019.44        58.63634
1019.82        57.40649
1020.20        56.03864
1020.58         54.9247
1020.95        53.75913
1021.33        53.09288
1021.71        53.50708
1022.09        55.05583
1022.46        58.03259
1022.84        61.29734
1023.22        61.94988
1023.60        59.07866
1023.97        53.48973
1024.35        48.30993
1024.73        47.14312
