SpectraSmart Spectrum 2.9.0.0
--------- Device Information -----------
Spectrum Name :  反射率_0
Saving Time :  2024/04/26 23:17:00
Spectro-Module Model Name : SE2030-DUVN
Spectro-Module Serial Number : OS361AC55029948
Wavelength Start : 200
Wavelength End : 1025
Wavelength Unit : Wavelength(nm)
Spectrum Unit : Reflectance(%)
-----------Spectrum Setting ------------
Integration Time : 20ms
Average : 10
Boxcar : 0
Background removal :  enabled
linearity correction :  enabled
SC :  disabled
Intensity correction :  disabled
DWT denoise :  enabled
savitzky-golay :  disabled
FFT :  disabled
Running average :  disabled
Kalman :  disabled
High pass :  disabled
---------------BEGIN--------------------
Wavelength(nm)             Reflectance(%)
200.29               0
200.75        23.91064
201.21        28.82646
201.67        33.33688
202.13        34.93961
202.58        33.41062
203.04        29.55427
203.50        24.29697
203.96        21.02218
204.42        22.37017
204.88        27.97491
205.34        35.98161
205.80         42.3476
206.26        45.18144
206.72        45.07431
207.18        43.95287
207.64        43.88085
208.10        45.23506
208.55        48.31798
209.01        50.87497
209.47        46.95191
209.93         37.3155
210.39         27.9601
210.85        22.15384
211.31        20.26873
211.77         21.7683
212.23        28.24377
212.69         47.9586
213.14        89.15382
213.60        100.1194
214.06        81.01803
214.52        64.12893
214.98          54.331
215.44        47.65514
215.90        40.89606
216.36        34.76732
216.81        31.06483
217.27        30.65954
217.73        34.22425
218.19        41.16582
218.65        45.02007
219.11        42.84733
219.57        38.38442
220.02        35.86072
220.48        38.22727
220.94        45.67455
221.40        58.97506
221.86         78.0807
222.32        91.57211
222.77        88.42185
223.23        76.19987
223.69        62.89667
224.15        52.98104
224.61        46.27682
225.06        41.09277
225.52        37.72985
225.98        36.41166
226.44        36.70117
226.90        38.31718
227.36        40.10983
227.81        40.11317
228.27        38.18743
228.73        35.08543
229.19        32.15521
229.65         30.8897
230.10         31.3776
230.56        33.13689
231.02        35.21641
231.48        36.10556
231.93        35.52563
232.39        34.26698
232.85        33.26358
233.31        33.79312
233.77        35.92044
234.22        39.10392
234.68        42.50861
235.14        44.96647
235.60        46.09182
236.05        46.25303
236.51         45.6422
236.97        44.72553
237.43        43.83517
237.88        42.91033
238.34        42.22496
238.80        42.42411
239.26        43.81805
239.71        46.97207
240.17        51.63626
240.63        56.69347
241.08        61.18135
241.54        64.19553
242.00        66.80258
242.46        72.16387
242.91        82.92485
243.37        100.8723
243.83        125.2387
244.28        141.1328
244.74        130.9359
245.20        98.66156
245.66        66.74625
246.11        52.75431
246.57        55.69369
247.03        69.31087
247.48        85.51523
247.94        89.58542
248.40        81.27368
248.85        69.23674
249.31        58.83553
249.77        52.16766
250.22         48.2732
250.68        45.30805
251.14         43.2451
251.59        43.08895
252.05        45.49113
252.51        50.35019
252.96        54.93472
253.42        56.97429
253.88        56.77417
254.33        54.87317
254.79        54.04549
255.25         56.6092
255.70        62.18719
256.16        69.73864
256.62        75.82922
257.07        75.47403
257.53        70.24782
257.99        63.44014
258.44        57.74985
258.90        55.47869
259.35        55.52911
259.81        57.04519
260.27        58.44589
260.72        57.90823
261.18        55.75039
261.63        52.67693
262.09        50.16127
262.55        49.28225
263.00        49.79967
263.46        51.17357
263.91         52.3047
264.37         52.0888
264.83        50.46482
265.28        47.99501
265.74        45.58807
266.19         44.0675
266.65        43.60332
267.11        43.76314
267.56        44.13155
268.02        44.06925
268.47        43.39972
268.93        42.40123
269.38        41.23003
269.84        40.15485
270.30        39.25723
270.75        38.41637
271.21        37.70609
271.66        37.20442
272.12        36.89748
272.57        36.74741
273.03        36.57132
273.48        36.05566
273.94        35.19822
274.39        34.07538
274.85         32.9593
275.31        32.09853
275.76        31.52653
276.22        31.19749
276.67        30.94605
277.13        30.61887
277.58        30.13174
278.04        29.55559
278.49        28.95309
278.95        28.51993
279.40        28.23021
279.86        28.08134
280.31        27.86952
280.77        27.40857
281.22        26.66441
281.68        25.78675
282.13        24.97023
282.59         24.5517
283.04        24.54011
283.50        24.83408
283.95        25.21101
284.41        25.32467
284.86        25.09097
285.32        24.65266
285.77        24.17236
286.22        23.93254
286.68         23.9871
287.13        24.20601
287.59        24.48322
288.04        24.62186
288.50        24.59286
288.95        24.44174
289.41        24.25634
289.86        24.09821
290.32        24.02528
290.77        24.00625
291.22        24.04093
291.68         24.1187
292.13        24.23857
292.59        24.43949
293.04        24.75962
293.50        25.26723
293.95        25.96283
294.40        26.82491
294.86        27.80103
295.31        28.80149
295.77        29.80523
296.22        30.81822
296.68        31.87705
297.13        33.02858
297.58        34.29171
298.04        35.65022
298.49        37.06743
298.95        38.50595
299.40        39.93771
299.85         41.3704
300.31        42.82755
300.76         44.3279
301.21        45.88035
301.67        47.49371
302.12        49.10123
302.58        50.67892
303.03        52.18701
303.48        53.66424
303.94         55.1869
304.39         56.8133
304.84         58.5719
305.30        60.43976
305.75        62.31058
306.20        64.10132
306.66        65.79726
307.11        67.39523
307.57         68.9342
308.02         70.3829
308.47         71.7693
308.93        73.09429
309.38        74.39188
309.83        75.82024
310.29         77.4017
310.74        79.09188
311.19        80.72736
311.65        82.01054
312.10        82.85954
312.55        83.35465
313.00        83.73251
313.46        84.37112
313.91        85.33291
314.36        86.53046
314.82        87.73842
315.27        88.59959
315.72        89.00731
316.18        89.10863
316.63        89.08144
317.08        89.24213
317.53        89.68328
317.99        90.30329
318.44        90.99789
318.89        91.57079
319.35        91.95505
319.80        92.21328
320.25        92.42271
320.70        92.70348
321.16        93.08383
321.61        93.55508
322.06        94.01919
322.51        94.33218
322.97        94.45274
323.42        94.43172
323.87        94.42795
324.32        94.71806
324.78        95.32011
325.23        96.21394
325.68        97.09569
326.13        97.46613
326.59        97.20853
327.04        96.50751
327.49        95.70735
327.94        95.38074
328.39        95.67372
328.85        96.38738
329.30        97.35748
329.75        98.05098
330.20        98.29176
330.66        98.22385
331.11        98.06104
331.56        98.07468
332.01        98.36204
332.46        98.79126
332.92        99.26587
333.37        99.78979
333.82        100.2675
334.27        100.7577
334.72        101.1741
335.17        101.3512
335.63        101.2788
336.08         101.065
336.53        100.9213
336.98        101.2465
337.43        102.1234
337.88         103.404
338.34        104.8413
338.79        106.1139
339.24         107.022
339.69        107.6581
340.14        107.9895
340.59        107.9891
341.05        107.7496
341.50        107.2933
341.95        106.8894
342.40        106.9588
342.85        107.5832
343.30        108.6411
343.75        109.8949
344.20        110.9209
344.66        111.5726
345.11        111.9562
345.56        112.1235
346.01        112.1747
346.46        112.1907
346.91        112.1588
347.36        112.1655
347.81         112.369
348.26        112.7777
348.72        113.3172
349.17        113.9225
349.62        114.5098
350.07        115.0208
350.52        115.5008
350.97        115.7499
351.42        115.4609
351.87        114.6444
352.32        113.4238
352.77          112.27
353.22        111.8759
353.67        112.3541
354.13        113.4969
354.58        114.8107
355.03        115.4139
355.48        115.0663
355.93        114.0213
356.38        112.7578
356.83        112.0082
357.28        111.9315
357.73        112.2737
358.18        112.6538
358.63        112.4708
359.08        111.5857
359.53        110.2464
359.98        108.7749
360.43        107.6167
360.88        106.8836
361.33        106.4231
361.78        106.0662
362.23        105.5586
362.68        104.8328
363.13         103.995
363.58        103.1309
364.03        102.3525
364.48        101.6842
364.93        101.0586
365.38        100.4524
365.83        99.84878
366.28        99.23908
366.73        98.64979
367.18        98.03939
367.63        97.33148
368.08        96.52286
368.53        95.63536
368.98          94.772
369.43        94.09639
369.88        93.63805
370.33        93.34918
370.78        93.10098
371.23        92.68179
371.68        92.03656
372.13        91.22215
372.58        90.36612
373.03        89.67265
373.48        89.18552
373.93        88.83266
374.38        88.49216
374.83        87.97794
375.28        87.24949
375.72        86.36192
376.17         85.4708
376.62        84.69783
377.07        84.09327
377.52        83.63786
377.97        83.27029
378.42        82.90647
378.87        82.51965
379.32        82.10152
379.77        81.75803
380.22        81.64115
380.67        81.74343
381.11        82.03767
381.56        82.20216
382.01        81.80023
382.46        80.79485
382.91        79.39764
383.36        78.03511
383.81        77.28862
384.26        77.24383
384.71         77.6993
385.15        78.35772
385.60        78.69624
386.05        78.55254
386.50        78.08617
386.95        77.42637
387.40        76.78074
387.85        76.23964
388.29        75.69017
388.74        75.25068
389.19        74.89878
389.64        74.62187
390.09        74.42905
390.54        74.26886
390.98        74.02682
391.43        73.71652
391.88        73.35146
392.33        72.99218
392.78        72.68625
393.23        72.43626
393.67        72.30705
394.12        72.28619
394.57        71.93645
395.02        71.37067
395.47        71.24017
395.91        71.48962
396.36        71.42603
396.81        71.03764
397.26        70.72121
397.71        70.51471
398.15        70.28188
398.60        70.10602
399.05        69.93813
399.50        69.79366
399.95        69.74145
400.39        69.76302
400.84        69.70232
401.29        69.52033
401.74        69.24323
402.18          68.882
402.63        68.39687
403.08        67.90938
403.53        67.59969
403.97        67.49239
404.42        67.53282
404.87        67.64449
405.32        67.65376
405.76        67.50842
406.21        67.41734
406.66        67.35699
407.11        67.05219
407.55        66.68871
408.00        66.74949
408.45        67.18212
408.90         67.6303
409.34        67.79951
409.79        67.18227
410.24        66.06583
410.68        65.47318
411.13        65.50301
411.58        65.58483
412.03        65.58102
412.47        65.53423
412.92        65.38156
413.37        65.14789
413.81        64.92293
414.26        64.90211
414.71        65.08735
415.15        65.43456
415.60        65.82046
416.05        66.10358
416.49        66.22907
416.94        66.23057
417.39        66.14745
417.83        66.02853
418.28        65.90818
418.73        65.77348
419.17        65.66269
419.62        65.64173
420.07        65.70943
420.51         65.8273
420.96        65.97089
421.41        66.02026
421.85        65.93225
422.30        65.87083
422.74        65.77501
423.19        65.52824
423.64        65.17028
424.08        64.99862
424.53        65.05222
424.98        65.12594
425.42        65.20997
425.87        65.60676
426.31        66.12132
426.76         65.8916
427.21        65.08231
427.65        64.82599
428.10        65.14867
428.54        65.30465
428.99        65.33627
429.44         65.3961
429.88        65.54211
430.33        66.22895
430.77        67.11919
431.22        67.12855
431.66        66.62589
432.11        66.00845
432.56        65.65143
433.00        65.45422
433.45        65.57655
433.89        66.43858
434.34         67.3297
434.78        67.92136
435.23        66.72562
435.67        64.98517
436.12        65.29847
436.57        65.41632
437.01        65.92609
437.46         66.1804
437.90        66.20039
438.35        65.54305
438.79         65.9843
439.24        66.05821
439.68        66.20095
440.13        66.42361
440.57        66.73875
441.02        66.68496
441.46        66.35316
441.91        67.02644
442.35        68.19888
442.80        67.79634
443.24        66.21529
443.69        66.24971
444.13         67.7297
444.58        68.27304
445.02        67.78544
445.47        67.61936
445.91         67.8744
446.36        68.00793
446.80        67.99088
447.24        68.32838
447.69         68.5181
448.13        68.37695
448.58        68.63184
449.02        68.58119
449.47        68.51117
449.91        68.43269
450.36        68.38815
450.80        68.33142
451.25        68.28474
451.69        68.24872
452.13        68.23654
452.58        68.24831
453.02         68.2628
453.47        68.24239
453.91        68.15114
454.36        68.04376
454.80        67.97636
455.24        67.71591
455.69        67.20705
456.13        67.37757
456.58        67.54178
457.02        66.40033
457.46        66.00632
457.91        66.53674
458.35        66.89868
458.79        66.99661
459.24        66.47417
459.68        65.57903
460.13        64.50085
460.57        65.01714
461.01        65.03908
461.46        65.12514
461.90        65.54475
462.34        66.98246
462.79        65.87271
463.23        65.85091
463.68        65.79536
464.12        65.75999
464.56        65.59265
465.01        64.85879
465.45        63.83432
465.89        63.62475
466.34        64.09239
466.78        64.28078
467.22        64.13716
467.67         63.6149
468.11        63.61507
468.55        63.52689
468.99        63.56195
469.44        63.45082
469.88        63.20653
470.32        63.03783
470.77        62.96032
471.21        62.89854
471.65        62.83583
472.10        62.79646
472.54        62.78609
472.98        62.75518
473.42        62.68046
473.87        62.78049
474.31        62.91835
474.75        62.48506
475.20        61.70949
475.64        61.65816
476.08        62.26922
476.52        62.36328
476.97        61.85856
477.41        61.82862
477.85        62.08762
478.29        61.33558
478.74         61.8297
479.18        61.81925
479.62        61.88498
480.06        61.83014
480.50        61.73121
480.95        61.81223
481.39        62.13762
481.83        61.45683
482.27         61.5091
482.72        61.92955
483.16        61.56374
483.60        61.44539
484.04        61.49306
484.48        61.79057
484.93        62.24723
485.37        61.49308
485.81        61.21167
486.25        60.91003
486.69        63.73097
487.14         64.6891
487.58        62.07323
488.02        61.84703
488.46        60.92921
488.90        60.41694
489.34        61.69778
489.79        62.67778
490.23        61.70666
490.67        61.20331
491.11        60.78065
491.55        60.63692
491.99        60.71769
492.43        60.59754
492.88        60.30685
493.32        60.28424
493.76        60.50895
494.20        60.63077
494.64        60.60747
495.08        60.59527
495.52         60.5771
495.96        60.43065
496.41        60.20675
496.85        60.11102
497.29         60.0659
497.73        60.19087
498.17        59.73732
498.61        59.73508
499.05        59.93549
499.49        60.14307
499.93        60.07658
500.37        60.14846
500.82        60.28529
501.26        60.13415
501.70        59.73314
502.14        60.11147
502.58        60.09508
503.02        60.27411
503.46        60.28481
503.90        60.36377
504.34        60.47209
504.78        60.44757
505.22        60.26403
505.66        60.05068
506.10        59.91437
506.54        59.68631
506.98        59.32177
507.42        60.04025
507.86        59.81035
508.30        59.70272
508.74         59.8703
509.18        59.76789
509.62        59.63556
510.06        59.50931
510.50         59.4301
510.94        59.35407
511.38         59.2863
511.82        59.25555
512.26        59.26371
512.70        59.30789
513.14        59.35425
513.58        59.39728
514.02        59.43692
514.46        59.37477
514.90        59.21526
515.34        59.49227
515.78        59.38023
516.22        59.52436
516.66         59.6308
517.10        59.64614
517.54        59.55149
517.98        59.38685
518.42        59.20583
518.86        59.06367
519.30         58.9831
519.74        58.96502
520.18        58.99791
520.62        59.01024
521.06        59.01738
521.50        59.14747
521.93        59.35092
522.37        59.42415
522.81        59.35329
523.25        59.21601
523.69         59.0955
524.13        59.09752
524.57        59.23761
525.01        59.47301
525.45        59.69349
525.89        59.72044
526.32        59.51358
526.76        59.15918
527.20        58.75603
527.64        58.46166
528.08        58.32591
528.52        58.30087
528.96        58.35987
529.40        58.46054
529.83        58.57334
530.27          58.714
530.71        58.84285
531.15         58.9004
531.59        58.87492
532.03        58.77282
532.46        58.62423
532.90        58.52557
533.34        58.49063
533.78         58.4678
534.22        58.43613
534.66        58.43247
535.09         58.4067
535.53        58.23722
535.97         57.9734
536.41        57.84177
536.85        57.86499
537.28        57.92739
537.72        58.00744
538.16        58.11368
538.60        58.22786
539.04        58.34853
539.47        58.44552
539.91        58.50293
540.35        58.50985
540.79         58.4899
541.22         58.4584
541.66        58.44254
542.10        58.44656
542.54        58.47618
542.97        58.49834
543.41        58.48321
543.85        58.41447
544.29        58.30695
544.72        58.19051
545.16        58.13233
545.60        58.13556
546.04        58.23221
546.47        58.36847
546.91        58.38342
547.35        58.31003
547.79        58.29674
548.22        58.35662
548.66        58.52802
549.10        58.76609
549.53        58.65643
549.97        58.28071
550.41        58.03881
550.84        58.02763
551.28        58.09931
551.72        58.17811
552.15         58.3227
552.59        58.53925
553.03         58.0867
553.46        58.29252
553.90        58.18398
554.34        58.14709
554.77        58.09819
555.21        58.10428
555.65        58.11824
556.08        58.44001
556.52        58.55043
556.96        58.51582
557.39        58.47551
557.83        58.44143
558.27        58.25385
558.70        57.95681
559.14        57.81624
559.57        57.81902
560.01        57.77167
560.45         57.7113
560.88        57.85574
561.32        58.17259
561.75        58.43345
562.19        58.57491
562.63          58.488
563.06         58.2494
563.50        58.17213
563.93        58.22354
564.37        58.29198
564.80        58.35653
565.24        58.24018
565.68        57.84922
566.11        58.41367
566.55         57.8496
566.98        57.70703
567.42        57.51123
567.85        57.70583
568.29        58.20659
568.72        58.48923
569.16        58.63897
569.60        58.75557
570.03        59.01291
570.47        59.35109
570.90        59.85048
571.34        59.07901
571.77        59.62947
572.21        59.82775
572.64        59.63141
573.08         59.9721
573.51         59.1853
573.95        59.21238
574.38        59.65333
574.82        60.15678
575.25        59.48283
575.69        59.81672
576.12        59.69323
576.56         59.1757
576.99        59.05309
577.42        59.43655
577.86        59.55272
578.29        60.45835
578.73        61.00831
579.16        60.80365
579.60         59.7585
580.03        59.51302
580.47        59.33556
580.90        60.39173
581.33        60.25128
581.77        60.16429
582.20        60.77565
582.64        61.48492
583.07        60.82856
583.51        60.23967
583.94        59.51107
584.37        59.19927
584.81        59.51564
585.24        59.80164
585.68        59.80194
586.11        60.08249
586.54        60.10939
586.98        58.74549
587.41        58.76157
587.85         59.1577
588.28        59.31356
588.71        59.40845
589.15        58.90873
589.58        59.06643
590.01        58.67619
590.45        58.54027
590.88         59.4005
591.31        59.33019
591.75        58.77308
592.18        58.28769
592.61        58.13758
593.05        58.84084
593.48        59.71146
593.91        59.81548
594.35        59.52518
594.78        58.85934
595.21        58.21679
595.65        58.45848
596.08        59.48683
596.51        59.53769
596.94        58.85396
597.38        58.54853
597.81        58.70067
598.24        59.11696
598.68        58.99976
599.11         58.4138
599.54         59.5865
599.97        59.39835
600.41        59.17352
600.84        58.63595
601.27        59.05611
601.70        58.97879
602.14        59.08846
602.57        58.78085
603.00        58.38605
603.43         58.3564
603.87        58.99072
604.30        59.24649
604.73        59.31139
605.16        58.23235
605.60        58.45564
606.03        58.14796
606.46        57.96046
606.89        58.38263
607.32        58.49374
607.76        58.27172
608.19         58.5975
608.62        58.53185
609.05        58.46452
609.48        58.27619
609.92        58.86377
610.35        58.32919
610.78        58.25169
611.21        58.44051
611.64        58.02858
612.07        58.23167
612.50        58.30143
612.94        58.34574
613.37         58.2184
613.80        57.86696
614.23        57.36707
614.66        57.35017
615.09        57.83754
615.52        58.13073
615.96        58.13557
616.39        58.17885
616.82        58.26067
617.25        57.90871
617.68        57.55804
618.11        57.54074
618.54        57.89235
618.97        57.96306
619.40        57.74582
619.84        57.68275
620.27          57.701
620.70        57.76167
621.13        57.75704
621.56        57.26103
621.99         56.4763
622.42        56.31969
622.85        56.80339
623.28        56.88971
623.71        56.88488
624.14        57.03204
624.57        57.23956
625.00        57.22696
625.43        57.60829
625.86        57.48011
626.29        57.19987
626.72        56.51596
627.15         56.9865
627.58        57.01021
628.01        56.90003
628.44        57.13583
628.87         57.0684
629.30        56.81661
629.73        56.53638
630.16        56.99029
630.59        56.68901
631.02        56.88667
631.45        57.06983
631.88        57.15951
632.31        57.10806
632.74        57.02991
633.17         56.9844
633.60        56.67111
634.03        56.67251
634.46         56.5333
634.89        56.41976
635.32        56.33146
635.75         56.2781
636.18        56.19557
636.61        56.11338
637.04        56.12246
637.47        56.22474
637.89        56.38763
638.32        56.52596
638.75         56.5552
639.18        56.45502
639.61         56.2538
640.04        56.03534
640.47        55.93318
640.90        55.97915
641.33        56.13685
641.76        56.33265
642.18         56.4489
642.61          56.433
643.04        56.32765
643.47        56.19335
643.90        56.12784
644.33        56.15364
644.76        56.23537
645.18        56.32213
645.61        56.31869
646.04         56.2155
646.47        56.05732
646.90        55.89397
647.33         55.8017
647.75        55.78063
648.18        55.82512
648.61        55.95596
649.04        56.05809
649.47         56.0341
649.89        56.63475
650.32        56.32476
650.75        56.28851
651.18        56.16235
651.61        56.11955
652.03        56.18977
652.46        56.41426
652.89        56.73309
653.32        56.69473
653.74        56.42149
654.17        56.37985
654.60        56.82734
655.03        56.46107
655.46        55.76442
655.88        56.02964
656.31        59.20594
656.74        63.48437
657.16        64.29344
657.59         64.1408
658.02        59.05906
658.45        57.59289
658.87         56.4306
659.30        56.84939
659.73        56.54961
660.15        57.59983
660.58        56.30206
661.01        56.20733
661.44        56.35745
661.86        56.10475
662.29        55.47511
662.72        55.80426
663.14        55.96167
663.57        55.92505
664.00        55.49484
664.42        55.50274
664.85        55.96415
665.27        56.41789
665.70        56.69849
666.13        56.80751
666.55        56.71162
666.98        56.35182
667.41         55.8369
667.83         55.7166
668.26        55.46893
668.69        55.51355
669.11        55.65256
669.54        55.82107
669.96        55.98528
670.39        56.21102
670.82         56.4626
671.24         56.5249
671.67        56.43795
672.09         56.4836
672.52        56.64906
672.94        56.64823
673.37         56.4856
673.80        56.32306
674.22        56.21158
674.65        56.12722
675.07        56.09864
675.50        56.12323
675.92        56.17347
676.35        56.18916
676.77        56.15661
677.20        56.08854
677.62        56.01017
678.05        55.96328
678.47        55.95757
678.90        55.98326
679.32        56.01818
679.75        56.04089
680.17        56.03933
680.60        56.02204
681.02        56.00981
681.45        56.02529
681.87        56.08422
682.30        56.18298
682.72        56.29951
683.15        56.34046
683.57        56.31648
684.00        56.28146
684.42        56.28811
684.85        56.37891
685.27        56.55394
685.70        56.82159
686.12        57.07986
686.54        57.16875
686.97        57.06939
687.39        56.83322
687.82         56.5442
688.24        56.42948
688.66         56.4779
689.09        56.41953
689.51        56.27439
689.94        56.25932
690.36        56.37593
690.78        56.48239
691.21         56.5702
691.63        56.65105
692.06        56.70934
692.48        56.87072
692.90        56.86406
693.33        56.82425
693.75        56.67725
694.17        56.44588
694.60        56.22396
695.02        56.12479
695.44        56.17852
695.87        56.45641
696.29        56.82901
696.71         56.7984
697.14        56.42282
697.56        56.27274
697.98        56.39472
698.41        56.42925
698.83        56.37304
699.25        56.48724
699.68         56.6786
700.10        56.71742
700.52        56.55777
700.94        56.28254
701.37        56.00949
701.79        55.93221
702.21        56.08505
702.64        56.38907
703.06        56.73657
703.48        56.93754
703.90         56.9389
704.33        56.80477
704.75        56.60214
705.17        56.43179
705.59        56.33897
706.01        56.29022
706.44        56.29953
706.86        56.41038
707.28        56.60522
707.70        56.86193
708.12        57.12339
708.55        57.31019
708.97        57.38704
709.39        57.31097
709.81        57.13595
710.23        57.03118
710.66        57.03001
711.08        57.07774
711.50        57.11625
711.92        57.08789
712.34         56.9819
712.76        56.83389
713.19        56.68006
713.61        56.60904
714.03         56.6327
714.45        56.72691
714.87        56.87825
715.29         57.0704
715.71        57.28121
716.13         57.4953
716.56        57.66563
716.98         57.7928
717.40         57.8343
717.82        57.79874
718.24        57.67614
718.66        57.45394
719.08         57.1628
719.50        56.84248
719.92        56.57156
720.34        56.46199
720.76        56.53419
721.19        56.73007
721.61        57.03227
722.03        57.36331
722.45        57.67042
722.87        57.95552
723.29        58.13956
723.71        58.09472
724.13        57.81573
724.55        57.36897
724.97        56.89936
725.39        56.56368
725.81        56.56548
726.23        56.71417
726.65        56.96289
727.07         57.2832
727.49        57.41645
727.91        57.56466
728.33        57.67554
728.75        57.77437
729.17        57.86346
729.59         57.9156
730.01        57.93412
730.43        57.93521
730.85        57.92085
731.27        57.89165
731.69         57.8397
732.10        57.74568
732.52        57.61191
732.94        57.46712
733.36        57.35057
733.78        57.21289
734.20        57.05817
734.62         57.1046
735.04        57.41767
735.46        57.03787
735.88        57.64813
736.30        57.83683
736.72        58.07934
737.13        58.32497
737.55        58.47853
737.97        58.57117
738.39        58.55125
738.81        58.15691
739.23        57.57375
739.65        57.59516
740.06        58.11839
740.48         58.3444
740.90        58.21267
741.32        58.20653
741.74        58.34174
742.16        58.39316
742.57         58.3568
742.99         58.2769
743.41        58.18262
743.83        58.10495
744.25        58.05464
744.67        58.01352
745.08        57.99001
745.50        57.97665
745.92        57.97497
746.34        57.98281
746.75        57.98433
747.17        57.93841
747.59        57.85068
748.01        57.74789
748.42        57.65502
748.84        57.61464
749.26        57.65522
749.68        57.72342
750.09        57.80023
750.51        58.01766
750.93        58.25213
751.35         58.0772
751.76        57.58136
752.18        57.31306
752.60         57.3147
753.01        57.30637
753.43        57.25286
753.85        57.24414
754.27        57.28016
754.68        57.36739
755.10        57.49403
755.52         57.5843
755.93        57.69482
756.35        57.72803
756.77        57.79303
757.18        57.88986
757.60        58.01683
758.02        58.47646
758.43        59.07019
758.85        58.43526
759.26        58.01857
759.68        57.38186
760.10        57.13792
760.51        57.50253
760.93        58.29501
761.34        58.45126
761.76        58.52737
762.18        58.33895
762.59         58.2155
763.01        58.24471
763.42        58.47379
763.84        58.52826
764.26        58.40388
764.67        58.39034
765.09        58.47471
765.50        58.32581
765.92        58.01457
766.33        57.78341
766.75        57.62259
767.16        57.50988
767.58        57.43951
768.00        57.43792
768.41         57.5404
768.83        57.84614
769.24        58.21718
769.66        58.34451
770.07        58.21729
770.49        57.90115
770.90        57.59188
771.32        57.88487
771.73        58.63504
772.15         58.9023
772.56        58.62529
772.97        58.31557
773.39        58.10783
773.80        57.99386
774.22        57.99801
774.63        58.16716
775.05         58.3593
775.46        58.40507
775.88        58.24084
776.29        57.94574
776.70        57.64892
777.12        57.57748
777.53        57.78828
777.95        58.16983
778.36        58.60456
778.77        58.86697
779.19         58.9047
779.60        58.79914
780.02        58.59911
780.43        58.45222
780.84        58.42644
781.26        58.22623
781.67        58.04268
782.09        58.42629
782.50        59.17795
782.91        59.17562
783.33        58.51508
783.74        58.29259
784.15        58.54509
784.57        58.78776
784.98        58.92669
785.39        58.71218
785.81         58.3104
786.22        58.56319
786.63        59.33815
787.04        59.64504
787.46        59.43308
787.87        59.22674
788.28        59.14634
788.70        59.11181
789.11        59.12798
789.52        59.29649
789.93        59.52397
790.35        59.47812
790.76        59.21029
791.17          59.144
791.58        59.27974
792.00        59.20826
792.41        58.93605
792.82        58.84581
793.23        58.91645
793.65        58.70348
794.06        58.41856
794.47        58.79217
794.88        59.54673
795.29        60.41174
795.71        59.74829
796.12        59.52079
796.53        59.38859
796.94        58.98813
797.35        58.52675
797.76        58.86011
798.18        59.77449
798.59        60.13935
799.00        59.81691
799.41        59.38824
799.82        59.04288
800.23        58.85674
800.64        58.89721
801.06        59.09306
801.47         59.3647
801.88        59.50565
802.29        59.45042
802.70        59.26136
803.11        58.99503
803.52        58.74368
803.93        58.57127
804.34        58.46363
804.75        58.44129
805.17        58.61288
805.58        59.02035
805.99        59.35094
806.40        59.59896
806.81        60.37958
807.22         61.3534
807.63        61.08041
808.04        59.79455
808.45        59.15694
808.86        59.32299
809.27        59.41922
809.68        59.31486
810.09        59.20148
810.50        59.05201
810.91        58.83746
811.32        58.67247
811.73        58.72497
812.14        59.01919
812.55        59.49997
812.96        60.01635
813.37        60.28024
813.78        60.20359
814.19        59.88791
814.60        59.46514
815.01        59.11556
815.42        58.89215
815.83          58.741
816.24        58.67007
816.65         58.6935
817.05        58.81162
817.46        59.01537
817.87        59.24966
818.28        59.37817
818.69        59.37404
819.10        59.24643
819.51        59.11196
819.92        59.19041
820.33        59.52101
820.74        60.02436
821.14        60.51721
821.55         60.7061
821.96        60.52932
822.37        60.08457
822.78        59.54249
823.19        59.19323
823.60        59.13408
824.00        59.30386
824.41        59.57174
824.82        59.79732
825.23        59.90971
825.64        59.95695
826.04        59.96004
826.45        59.91322
826.86        59.84229
827.27        59.74706
827.68         59.6376
828.08         59.5666
828.49        59.50609
828.90        59.46135
829.31        59.47954
829.72        59.63303
830.12        59.93816
830.53        60.31692
830.94         60.6382
831.35        60.63784
831.75        60.28235
832.16        59.65318
832.57        58.95988
832.97        58.51665
833.38        58.41616
833.79        58.54871
834.20        58.85693
834.60        59.24069
835.01        59.64451
835.42        60.13636
835.82        60.59812
836.23        60.75571
836.64        60.58418
837.04         60.1072
837.45        59.62654
837.86        59.69978
838.26        60.45592
838.67        61.71825
839.08        63.01125
839.48        63.43953
839.89        62.77936
840.29        61.34657
840.70        59.83268
841.11        59.06674
841.51        59.24311
841.92        60.09779
842.33        61.24699
842.73        61.99882
843.14        62.02306
843.54        61.58219
843.95        60.97026
844.35        60.69885
844.76        60.88569
845.17        61.34717
845.57        61.85995
845.98        62.05103
846.38         61.8378
846.79        61.35207
847.19        60.77168
847.60        60.34815
848.00        60.16937
848.41        60.12679
848.81        60.16525
849.22        60.12553
849.62        60.00259
850.03        59.86524
850.43        59.74484
850.84        59.61703
851.24        59.53362
851.65        59.42814
852.05        59.47342
852.46        59.87569
852.86        60.62021
853.27        61.58191
853.67        62.41702
854.07        62.76582
854.48        62.55075
854.88        61.90255
855.29        61.00264
855.69        60.31121
856.10        59.94378
856.50        59.86978
856.90        59.94478
857.31        59.92451
857.71        59.78128
858.12        59.54543
858.52        59.35024
858.92         59.3029
859.33        59.40796
859.73        59.63474
860.13        59.83098
860.54        59.78377
860.94        59.48537
861.34         59.0043
861.75        58.48198
862.15        58.18219
862.55        58.16539
862.96        58.33133
863.36        58.64405
863.76        58.96389
864.17        59.21047
864.57        59.44115
864.97        59.57106
865.38        59.48209
865.78        59.18974
866.18        58.70512
866.58        58.18329
866.99        57.91107
867.39         57.9892
867.79         58.3489
868.19        58.81786
868.60        59.09849
869.00        59.13799
869.40        58.98087
869.80        58.76989
870.21         58.7722
870.61        59.09818
871.01        59.59711
871.41        60.01387
871.81        60.00254
872.22        59.50523
872.62        58.62474
873.02        57.65321
873.42        57.08777
873.82        57.07576
874.22        57.48596
874.63        58.00578
875.03        58.15029
875.43        57.79167
875.83        57.09048
876.23        56.35233
876.63         56.0422
877.03        56.27187
877.44        56.86844
877.84        57.56783
878.24        57.96415
878.64        57.88884
879.04        57.31751
879.44        56.61748
879.84        56.47326
880.24        56.97675
880.64        57.86379
881.04         58.7257
881.44        58.93328
881.84        58.33966
882.24        57.16938
882.65        55.88499
883.05        55.19062
883.45        55.27561
883.85        55.95275
884.25        56.86433
884.65        57.39937
885.05        57.38006
885.45        56.99267
885.85        56.54623
886.25        56.50898
886.65        56.97294
887.05        57.75149
887.45         58.5525
887.85        58.90952
888.25         58.7021
888.65        58.11146
889.04         57.3768
889.44        56.88337
889.84        56.73508
890.24        56.80991
890.64        57.02114
891.04        57.23095
891.44        57.36916
891.84        57.48383
892.24        57.54284
892.64         57.4795
893.04        57.30524
893.44        57.05296
893.83         56.8037
894.23        56.65635
894.63        56.66558
895.03        56.78479
895.43        57.02839
895.83        57.41452
896.23        57.89662
896.63        58.43367
897.02        58.85333
897.42         58.9109
897.82         58.5688
898.22        57.93948
898.62        57.19374
899.01        56.58757
899.41        56.21809
899.81        56.00768
900.21        55.96104
900.61        56.07403
901.00        56.31077
901.40        56.67416
901.80        57.02494
902.20        57.12729
902.59        56.94934
902.99        56.54597
903.39        56.08897
903.79        55.87521
904.18         55.9631
904.58        56.24259
904.98        56.61098
905.38        56.91787
905.77        57.10915
906.17        57.26328
906.57         57.2988
906.96        57.08049
907.36        56.61184
907.76        55.95229
908.15        55.38609
908.55        55.34718
908.95        55.91809
909.34        56.96928
909.74        58.12687
910.14        58.83585
910.53        58.89938
910.93        58.48845
911.33        57.79491
911.72        57.12193
912.12        56.64518
912.52        56.28811
912.91        56.03095
913.31         55.8576
913.70        55.75722
914.10        55.72688
914.49        55.84155
914.89        56.13031
915.29        56.58987
915.68        57.19765
916.08        57.71669
916.47        57.82192
916.87        57.47731
917.26        56.77281
917.66        56.07169
918.05         55.8086
918.45        56.07553
918.84        56.77914
919.24        57.61316
919.64        58.14826
920.03        58.24848
920.42        58.00497
920.82        57.66444
921.21        57.56243
921.61        57.76788
922.00        58.19484
922.40        58.61567
922.79         58.7683
923.19        58.55428
923.58        58.11466
923.98        57.62749
924.37        57.28582
924.77        57.16165
925.16        57.15871
925.55        57.24642
925.95        57.35822
926.34        57.46538
926.74        57.56864
927.13        57.60103
927.52        57.39029
927.92        56.96782
928.31        56.38237
928.70        55.80614
929.10        55.48015
929.49        55.44482
929.89        55.58352
930.28        55.89087
930.67        56.25356
931.07        56.57625
931.46        56.94522
931.85        57.15803
932.24        56.93129
932.64        56.29029
933.03        55.31768
933.42         54.4101
933.82        54.13785
934.21        54.61214
934.60        55.70873
934.99        57.05543
935.39        57.96528
935.78        58.24184
936.17        57.97129
936.56        57.46445
936.96        57.21898
937.35        57.36179
937.74        57.74908
938.13        58.06181
938.53        57.83527
938.92        57.01508
939.31        55.81688
939.70        54.65928
940.09        54.11802
940.49         54.2804
940.88        54.99435
941.27        55.92777
941.66        56.46753
942.05        56.41925
942.44        55.98481
942.84        55.41911
943.23        55.11286
943.62        55.19144
944.01        55.48989
944.40        55.92737
944.79        56.40281
945.18        56.82471
945.57        57.19978
945.97        57.38197
946.36        57.21214
946.75        56.64818
947.14        55.81494
947.53        54.86216
947.92        53.98996
948.31        53.29113
948.70        52.74425
949.09        52.46692
949.48        52.64317
949.87        53.27379
950.26        54.27477
950.65         55.3956
951.04        56.21212
951.43        56.57825
951.82        56.57554
952.21        56.30392
952.60        55.96738
952.99         55.6741
953.38        55.38936
953.77        55.18306
954.16        55.16912
954.55        55.34722
954.94         55.6755
955.33        56.07124
955.72         56.3582
956.11         56.4602
956.50        56.43226
956.89        56.19121
957.28        55.62508
957.66        54.77877
958.05        53.76214
958.44        52.87981
958.83        52.56531
959.22        52.87439
959.61        53.67884
960.00        54.67785
960.39        55.28694
960.78         55.2973
961.16        54.86414
961.55        54.23248
961.94        53.71455
962.33        53.42268
962.72        53.28397
963.11        53.26683
963.49        53.35136
963.88         53.4594
964.27         53.6072
964.66        53.86338
965.04        54.34897
965.43        55.01674
965.82         55.8577
966.21        56.55709
966.60        56.54112
966.98        55.68567
967.37        54.26683
967.76        52.83758
968.15        52.08839
968.53        52.15128
968.92        52.87613
969.31        53.89758
969.69         54.4664
970.08          54.278
970.47         53.5866
970.86        52.89135
971.24        52.91265
971.63        53.79066
972.02        55.29662
972.40        56.98027
972.79        57.73209
973.17        57.27016
973.56        56.00148
973.95        54.50351
974.33         53.4996
974.72        53.17215
975.11        53.27243
975.49        53.70105
975.88         54.2264
976.26        54.74201
976.65        55.28345
977.04        55.70949
977.42        55.75631
977.81        55.36234
978.19        54.56425
978.58        53.71694
978.96        53.37609
979.35         53.6577
979.74        54.43917
980.12        55.43801
980.51        55.91402
980.89         55.7829
981.28        55.25518
981.66        54.67031
982.05        54.47566
982.43        54.79414
982.82        55.43227
983.20        56.37025
983.59        57.48791
983.97        58.71593
984.35        60.05437
984.74        61.07927
985.12        61.33119
985.51         60.6676
985.89        59.24117
986.28        57.66086
986.66        56.77615
987.04        56.83574
987.43        57.62225
987.81        58.65818
988.20        58.91507
988.58        58.12829
988.96          56.616
989.35         54.9591
989.73        53.96834
990.12        53.81338
990.50        54.27541
990.88        54.95277
991.27        55.17178
991.65        54.73027
992.03        53.85475
992.42        52.99466
992.80        52.74146
993.18        53.22976
993.56        54.30566
993.95        55.45492
994.33        55.89041
994.71        55.30396
995.10        54.06403
995.48        52.78404
995.86        52.43925
996.24        53.22743
996.63        54.72747
997.01        56.61264
997.39         57.8824
997.77        58.08154
998.15        57.62909
998.54         56.5713
998.92        54.85822
999.30        52.77889
999.68         50.4252
1000.06        48.62363
1000.45        48.55438
1000.83        50.47957
1001.21        54.18752
1001.59        58.76517
1001.97        61.83862
1002.35        62.38282
1002.73        61.06106
1003.12        58.95329
1003.50        57.43843
1003.88        57.00385
1004.26        57.07213
1004.64        57.73247
1005.02        59.12925
1005.40        61.04332
1005.78         63.5526
1006.16        65.53629
1006.54         65.1808
1006.92        62.39321
1007.30        57.86484
1007.69        53.30001
1008.07         50.9727
1008.45        51.54518
1008.83        54.49956
1009.21         58.8295
1009.59        61.91969
1009.97        62.41133
1010.35        61.02706
1010.73        58.58273
1011.11        56.29348
1011.49        54.65871
1011.86        53.33582
1012.24        52.40781
1012.62         52.0373
1013.00        52.19115
1013.38        52.92328
1013.76        54.11385
1014.14        55.23525
1014.52        55.96432
1014.90        56.34039
1015.28        56.35957
1015.66        56.13485
1016.04        55.75434
1016.41        55.14392
1016.79        54.52706
1017.17        54.40425
1017.55        54.81468
1017.93        55.53725
1018.31        56.19308
1018.69        56.19172
1019.06         55.3969
1019.44        54.02602
1019.82        52.09896
1020.20        49.94389
1020.58        48.03619
1020.95        46.40319
1021.33        45.63007
1021.71        46.27509
1022.09        48.37371
1022.46        52.08882
1022.84        56.52111
1023.22        59.04608
1023.60        58.49717
1023.97        55.36209
1024.35        52.01801
1024.73        51.30825
