SpectraSmart Spectrum 2.9.0.0
--------- Device Information -----------
Spectrum Name :  反射率_0
Saving Time :  2024/04/26 23:22:33
Spectro-Module Model Name : SE2030-DUVN
Spectro-Module Serial Number : OS361AC55029948
Wavelength Start : 200
Wavelength End : 1025
Wavelength Unit : Wavelength(nm)
Spectrum Unit : Reflectance(%)
-----------Spectrum Setting ------------
Integration Time : 20ms
Average : 10
Boxcar : 0
Background removal :  enabled
linearity correction :  enabled
SC :  disabled
Intensity correction :  disabled
DWT denoise :  enabled
savitzky-golay :  disabled
FFT :  disabled
Running average :  disabled
Kalman :  disabled
High pass :  disabled
---------------BEGIN--------------------
Wavelength(nm)             Reflectance(%)
200.29               0
200.75        43.03748
201.21        41.66921
201.67        40.77692
202.13        40.20824
202.58        39.76907
203.04        39.88597
203.50        40.66069
203.96        41.86929
204.42        43.43039
204.88        45.27775
205.34        47.43512
205.80        50.15512
206.26         52.8905
206.72         54.6083
207.18        55.53982
207.64        56.26016
208.10        57.01715
208.55        58.70076
209.01        59.31131
209.47        54.72322
209.93        46.45703
210.39        38.82428
210.85        34.68486
211.31        34.90135
211.77        39.81416
212.23        53.67929
212.69        89.99149
213.14        150.7887
213.60        147.0174
214.06        103.0473
214.52        74.36906
214.98        63.44026
215.44        61.15051
215.90        61.72644
216.36        63.59604
216.81         64.9247
217.27        65.24372
217.73        66.53323
218.19        67.00226
218.65        61.27895
219.11         51.7905
219.57        43.24025
220.02         39.7269
220.48        43.63081
220.94         54.9295
221.40        75.76307
221.86        105.7536
222.32        125.7866
222.77        118.9485
223.23        97.64507
223.69        76.35202
224.15        63.42546
224.61        57.47343
225.06        54.56939
225.52        53.59078
225.98        53.33565
226.44        53.30218
226.90        53.89072
227.36        54.34225
227.81        53.28504
228.27        50.83118
228.73        47.43499
229.19        44.34554
229.65        42.97664
230.10        43.32251
230.56         44.9296
231.02        46.71531
231.48        46.98807
231.93        45.47666
232.39        43.09293
232.85         40.8973
233.31        40.29792
233.77        41.38306
234.22        43.62229
234.68        46.11766
235.14        47.58749
235.60        47.64926
236.05        46.69972
236.51        45.20842
236.97         44.1979
237.43         44.1955
237.88        45.03144
238.34        46.49104
238.80        48.47502
239.26        51.05706
239.71        54.84874
240.17        59.90688
240.63        66.03679
241.08        72.84864
241.54        79.49791
242.00        86.12147
242.46        94.23504
242.91        105.9984
243.37        122.2897
243.83        144.4158
244.28        166.2154
244.74        173.8487
245.20        164.0655
245.66        146.4208
246.11        130.4724
246.57        117.8841
247.03        106.9727
247.48        95.71398
247.94        83.42999
248.40        73.32847
248.85        66.48374
249.31        63.45378
249.77        63.99988
250.22        67.47291
250.68        73.78619
251.14        82.37898
251.59        89.06503
252.05        90.79875
252.51        89.50191
252.96        85.51385
253.42        80.11427
253.88        74.28458
254.33        67.82503
254.79        64.32277
255.25        66.66014
255.70        73.90662
256.16        84.57635
256.62        93.47633
257.07        92.94405
257.53        85.32804
257.99         75.7488
258.44        68.06387
258.90        65.46442
259.35        66.42912
259.81        69.35494
260.27        72.37828
260.72        73.31346
261.18        72.23625
261.63         69.8686
262.09        67.39813
262.55        65.41308
263.00        63.89704
263.46        62.77032
263.91         61.5456
264.37        60.02727
264.83        58.20825
265.28        56.22914
265.74        54.62855
266.19        53.72285
266.65         53.5653
267.11        53.87497
267.56        54.22595
268.02        53.96175
268.47        52.93087
268.93        51.38612
269.38        49.63086
269.84        48.20103
270.30        47.21539
270.75        46.48747
271.21        45.91341
271.66        45.27024
272.12        44.48983
272.57        43.63459
273.03        42.69778
273.48        41.64212
273.94        40.55093
274.39        39.40939
274.85        38.37075
275.31        37.50363
275.76        36.79754
276.22        36.26907
276.67        35.82627
277.13        35.43298
277.58         35.0076
278.04        34.56861
278.49        34.08058
278.95        33.61862
279.40        33.13676
279.86        32.69683
280.31        32.17841
280.77        31.52459
281.22        30.71898
281.68         29.8749
282.13        29.12275
282.59        28.72561
283.04         28.6712
283.50        28.88895
283.95        29.19232
284.41        29.29318
284.86        29.11997
285.32        28.79881
285.77        28.44953
286.22        28.30722
286.68        28.41818
287.13        28.65958
287.59        28.96924
288.04        29.21039
288.50        29.35719
288.95         29.4188
289.41          29.422
289.86        29.32998
290.32        29.19721
290.77        29.03397
291.22        28.90614
291.68        28.89643
292.13        29.03014
292.59         29.3252
293.04        29.80403
293.50        30.50838
293.95        31.42589
294.40        32.54957
294.86        33.81484
295.31        35.10699
295.77         36.4016
296.22        37.69745
296.68        39.05417
297.13        40.55954
297.58        42.23156
298.04        44.02774
298.49        45.86946
298.95        47.65715
299.40         49.3474
299.85        50.98064
300.31        52.59806
300.76        54.23857
301.21        55.93347
301.67         57.6893
302.12        59.48244
302.58        61.36637
303.03         63.2935
303.48        65.27913
303.94        67.31385
304.39         69.3098
304.84        71.27967
305.30        73.24845
305.75        75.18628
306.20        77.14832
306.66        79.14314
307.11        81.09456
307.57        82.98609
308.02        84.68452
308.47        86.19403
308.93         87.5608
309.38        88.81175
309.83        90.10723
310.29         91.4917
310.74        92.92599
311.19        94.32034
311.65        95.49731
312.10        96.39249
312.55        97.04681
313.00        97.61735
313.46        98.35314
313.91        99.28387
314.36        100.3745
314.82        101.4318
315.27        102.1596
315.72        102.4798
316.18        102.5176
316.63        102.4823
317.08        102.7505
317.53        103.4062
317.99        104.3176
318.44        105.2895
318.89        105.9699
319.35         106.255
319.80        106.2584
320.25        106.1314
320.70        106.1176
321.16        106.2945
321.61        106.6332
322.06        107.0363
322.51        107.3564
322.97        107.5395
323.42        107.6399
323.87        107.7912
324.32         108.225
324.78        108.9376
325.23        109.9219
325.68        110.8561
326.13        111.2252
326.59        110.9178
327.04        110.1261
327.49        109.2475
327.94        108.9439
328.39        109.3795
328.85        110.3311
329.30        111.5795
329.75        112.4538
330.20        112.7302
330.66        112.5761
331.11        112.2806
331.56        112.2311
332.01        112.5577
332.46        113.0972
332.92        113.6776
333.37         114.194
333.82         114.521
334.27        114.7698
334.72        114.9455
335.17        115.0263
335.63         115.038
336.08        115.0444
336.53         115.189
336.98        115.7641
337.43        116.8071
337.88        118.1923
338.34        119.6716
338.79        120.9409
339.24        121.8089
339.69        122.3682
340.14        122.6038
340.59        122.5271
341.05        122.2426
341.50        121.7555
341.95        121.3542
342.40        121.4797
342.85        122.2105
343.30        123.4329
343.75        124.8242
344.20        125.8196
344.66        126.2606
345.11        126.2972
345.56        126.1447
346.01        126.1671
346.46        126.4806
346.91        126.9664
347.36        127.5209
347.81        128.0048
348.26        128.3565
348.72        128.6113
349.17        128.8095
349.62        129.0423
350.07        129.3185
350.52        129.6222
350.97        129.7779
351.42        129.5217
351.87        128.8424
352.32        127.8475
352.77        126.8877
353.22        126.4638
353.67         126.657
354.13        127.3159
354.58        128.0686
355.03        128.2472
355.48        127.6863
355.93        126.5861
356.38        125.3663
356.83        124.6614
357.28        124.5922
357.73        124.9297
358.18         125.296
358.63         125.092
359.08        124.1734
359.53        122.7672
359.98         121.184
360.43        119.8611
360.88        118.9143
361.33        118.2077
361.78        117.5881
362.23        116.8244
362.68        115.8669
363.13        114.8253
363.58        113.8066
364.03        112.9482
364.48        112.2749
364.93        111.7114
365.38        111.1916
365.83        110.6314
366.28        109.9971
366.73        109.3148
367.18        108.5859
367.63        107.8055
368.08        106.9848
368.53        106.1346
368.98        105.2809
369.43        104.4653
369.88         103.702
370.33        102.9802
370.78        102.3103
371.23        101.7104
371.68         101.173
372.13        100.6822
372.58        100.1831
373.03         99.5873
373.48        98.86651
373.93        98.03579
374.38         97.1358
374.83         96.2457
375.28        95.39883
375.72        94.56777
376.17        93.79351
376.62        93.01507
377.07        92.24261
377.52        91.52688
377.97        90.89627
378.42        90.40566
378.87        90.05923
379.32        89.78435
379.77        89.61717
380.22        89.61463
380.67         89.7426
381.11        90.01248
381.56        90.11184
382.01        89.62938
382.46        88.54865
382.91        87.07253
383.36        85.65787
383.81         84.9336
384.26         84.9835
384.71        85.58765
385.15        86.39746
385.60        86.79742
386.05        86.60119
386.50        85.99802
386.95        85.15292
387.40        84.33195
387.85        83.65179
388.29        82.98447
388.74        82.46033
389.19        82.05364
389.64        81.74385
390.09        81.53458
390.54        81.36633
390.98        81.10703
391.43        80.76969
391.88        80.37621
392.33         79.9744
392.78        79.59801
393.23         79.2597
393.67        79.01806
394.12        78.91065
394.57        78.59998
395.02        78.18414
395.47        78.19627
395.91        78.55772
396.36        78.60545
396.81        78.31099
397.26        78.03795
397.71        77.78696
398.15        77.42493
398.60        77.06297
399.05        76.56003
399.50         76.0442
399.95        75.97124
400.39        76.23994
400.84        76.11929
401.29        75.59512
401.74        75.23544
402.18        75.06495
402.63        74.68843
403.08        74.22496
403.53        74.02708
403.97        74.11408
404.42        74.37086
404.87         74.6414
405.32        74.66074
405.76        74.36595
406.21        73.94386
406.66        73.50349
407.11        73.11458
407.55        72.93272
408.00        73.07385
408.45        73.44691
408.90        73.85667
409.34        74.04749
409.79        73.55879
410.24        72.64825
410.68        72.18955
411.13        72.27223
411.58        72.42899
412.03        72.49371
412.47        72.40186
412.92        72.08203
413.37        71.60448
413.81        71.12379
414.26        70.92268
414.71        71.02165
415.15        71.36971
415.60         71.7871
416.05        72.03867
416.49        72.04993
416.94        71.87926
417.39        71.65652
417.83        71.56796
418.28        71.66644
418.73        71.88773
419.17        72.13902
419.62        72.27942
420.07        72.26073
420.51        72.10852
420.96        71.93076
421.41        71.80684
421.85        71.73276
422.30        71.81774
422.74        71.90089
423.19        71.69353
423.64        71.22653
424.08        70.94175
424.53        70.89642
424.98        70.87811
425.42        70.90205
425.87        71.17216
426.31        71.54948
426.76        71.53414
427.21        71.20883
427.65        71.03497
428.10        70.97502
428.54        71.28442
428.99         71.1196
429.44        70.91902
429.88        70.66419
430.33        71.46467
430.77        72.81373
431.22        73.24498
431.66          72.661
432.11        71.71457
432.56        70.87542
433.00        70.69748
433.45        71.29632
433.89        72.41634
434.34        73.28376
434.78        73.45646
435.23        72.48552
435.67        70.64567
436.12        70.61402
436.57        70.91106
437.01        71.93857
437.46        72.30959
437.90        71.94756
438.35        71.35375
438.79         71.3961
439.24        71.36974
439.68        71.47967
440.13        71.87482
440.57        72.46192
441.02        72.57539
441.46        72.27255
441.91        72.75388
442.35        73.64909
442.80        73.40648
443.24        72.28146
443.69        72.25735
444.13        73.22793
444.58        73.58618
445.02        73.27232
445.47        73.19026
445.91        73.39977
446.36        73.58465
446.80         73.7203
447.24         74.0225
447.69         74.1715
448.13        74.28001
448.58        74.26822
449.02        74.14839
449.47        73.97568
449.91        73.81213
450.36        73.71333
450.80        73.64301
451.25        73.63524
451.69        73.68145
452.13        73.78668
452.58        73.93243
453.02        74.08826
453.47        74.21309
453.91        74.27814
454.36        74.29674
454.80        74.22887
455.24        73.98429
455.69        73.58214
456.13        73.12502
456.58        72.75552
457.02        72.30016
457.46        71.96485
457.91         72.2784
458.35        72.92955
458.79        72.95658
459.24        72.34973
459.68        71.50368
460.13        70.73492
460.57        70.43438
461.01        70.75772
461.46        70.93893
461.90        71.34039
462.34        72.45097
462.79        72.08564
463.23        72.22711
463.68        72.14803
464.12        71.85281
464.56        71.36215
465.01        70.68256
465.45        69.98578
465.89        69.91936
466.34        70.33483
466.78        70.49365
467.22        70.36617
467.67        70.05265
468.11        70.11031
468.55        70.12926
468.99        70.20621
469.44        70.12923
469.88        69.90714
470.32        69.70876
470.77        69.57092
471.21        69.46981
471.65        69.40501
472.10        69.39017
472.54        69.41005
472.98        69.41692
473.42        69.38715
473.87          69.446
474.31        69.49268
474.75        69.20381
475.20        68.70014
475.64        68.53934
476.08        68.76895
476.52        68.72356
476.97        68.32543
477.41        68.56899
477.85         69.0876
478.29        68.16541
478.74        68.93961
479.18        69.20904
479.62         68.9464
480.06        68.90466
480.50        68.82309
480.95         68.6347
481.39        68.31704
481.83        68.46227
482.27        68.02807
482.72        68.59675
483.16        68.38254
483.60        68.57317
484.04        68.69452
484.48         68.9288
484.93        69.01942
485.37         68.9744
485.81        67.68102
486.25        67.77976
486.69        68.60467
487.14        69.87786
487.58        68.40224
488.02        68.86552
488.46        67.96527
488.90        67.50081
489.34        69.15775
489.79        69.72759
490.23        69.01382
490.67        68.27401
491.11        67.61914
491.55        67.52481
491.99        67.88412
492.43         67.8777
492.88         67.4856
493.32         67.3517
493.76        67.51337
494.20        67.65862
494.64         67.7636
495.08        67.92336
495.52        68.07617
495.96        68.10963
496.41        68.01992
496.85        67.86903
497.29        67.61636
497.73        67.62643
498.17        67.07259
498.61        66.98868
499.05          67.105
499.49        67.25653
499.93        67.17712
500.37        67.33974
500.82        67.63364
501.26        67.61938
501.70        67.63712
502.14        67.60282
502.58        67.64771
503.02        67.72752
503.46        67.94235
503.90        67.87898
504.34        68.19991
504.78        68.15459
505.22        67.93117
505.66        67.59224
506.10        67.26009
506.54        67.03064
506.98        66.92141
507.42        67.16284
507.86        67.29785
508.30        67.29852
508.74        67.38646
509.18        67.31242
509.62        67.21365
510.06        67.12946
510.50        67.08338
510.94        67.03994
511.38         67.0116
511.82         67.0379
512.26        67.12403
512.70        67.24506
513.14        67.33664
513.58        67.36582
514.02        67.33467
514.46        66.96539
514.90        66.87412
515.34        66.77456
515.78        66.85276
516.22        67.04572
516.66        67.27492
517.10         67.4028
517.54        67.38721
517.98        67.27965
518.42        67.12048
518.86        66.97572
519.30         66.8727
519.74        66.78848
520.18        66.73418
520.62        66.72708
521.06        66.76824
521.50        66.86711
521.93        66.98775
522.37        67.04398
522.81         67.0279
523.25        66.95078
523.69        66.87923
524.13        66.92375
524.57        67.09388
525.01         67.3407
525.45         67.5688
525.89        67.62517
526.32        67.47176
526.76        67.18899
527.20        66.84927
527.64        66.57065
528.08        66.39734
528.52        66.29517
528.96        66.27247
529.40        66.33991
529.83        66.47975
530.27        66.69506
530.71        66.90958
531.15        67.00539
531.59        66.95774
532.03        66.79072
532.46        66.57239
532.90        66.46408
533.34        66.48921
533.78        66.56697
534.22        66.63556
534.66        66.68094
535.09        66.63479
535.53        66.38022
535.97         66.0014
536.41        65.79977
536.85        65.81305
537.28        65.89176
537.72        66.00435
538.16        66.15122
538.60         66.3037
539.04        66.46098
539.47        66.57163
539.91        66.60018
540.35        66.52914
540.79        66.37225
541.22        66.18793
541.66         66.0947
542.10        66.11178
542.54        66.21235
542.97        66.32627
543.41        66.36993
543.85        66.31468
544.29        66.20339
544.72        66.07941
545.16        66.04013
545.60        66.09074
546.04        66.23489
546.47        66.38171
546.91        66.52696
547.35        66.62707
547.79         66.6873
548.22        66.70032
548.66        66.67562
549.10        66.67225
549.53         66.5787
549.97        66.43935
550.41        66.24802
550.84        66.07804
551.28        66.11533
551.72        66.29431
552.15        66.37788
552.59        66.38497
553.03        66.17897
553.46        66.37495
553.90        66.37432
554.34          66.343
554.77        66.33548
555.21        66.39008
555.65        66.33971
556.08        66.44807
556.52        66.51575
556.96        66.56953
557.39        66.50857
557.83        66.36459
558.27        66.18652
558.70        66.00324
559.14        65.92988
559.57        65.93772
560.01        65.87659
560.45        65.77673
560.88        65.89635
561.32        66.20746
561.75        66.33789
562.19        66.30009
562.63        66.31665
563.06        66.38059
563.50        66.37186
563.93        66.24642
564.37        66.17941
564.80         66.1998
565.24        66.08449
565.68        65.72173
566.11        66.38807
566.55        65.70169
566.98        65.62261
567.42        65.54935
567.85        65.60705
568.29        65.81638
568.72        66.13566
569.16        66.56398
569.60        66.83003
570.03        66.81858
570.47        66.95892
570.90        67.30869
571.34        66.60169
571.77         66.7746
572.21         67.5075
572.64        66.83493
573.08        67.31438
573.51        66.53511
573.95        66.54805
574.38        67.02184
574.82        66.90283
575.25        66.71426
575.69        66.90174
576.12         67.0622
576.56        66.36141
576.99        66.39642
577.42        66.78085
577.86        66.73537
578.29         67.2843
578.73          67.494
579.16        67.39872
579.60        66.88165
580.03        66.82737
580.47        66.59983
580.90        67.53709
581.33         67.4308
581.77        67.30389
582.20        67.27376
582.64        67.52961
583.07        67.34865
583.51        67.04626
583.94        66.59692
584.37        66.75826
584.81        67.11984
585.24        67.23796
585.68        66.90868
586.11        67.16191
586.54        66.97989
586.98         66.6625
587.41        65.81033
587.85        66.92374
588.28        66.56153
588.71        66.17538
589.15        66.06341
589.58        66.60261
590.01        66.34823
590.45         65.9541
590.88        67.07345
591.31        66.89693
591.75        66.24123
592.18        65.86354
592.61        65.92966
593.05        66.63962
593.48        67.20825
593.91        67.01174
594.35         66.6711
594.78         66.0891
595.21        65.66312
595.65        66.04765
596.08        67.23534
596.51        66.93533
596.94        66.60013
597.38        66.19134
597.81        66.08212
598.24         67.1843
598.68        66.69041
599.11        66.07467
599.54        67.25529
599.97        66.56388
600.41        66.69038
600.84        66.10737
601.27        66.37153
601.70        66.38418
602.14        66.30326
602.57        66.24075
603.00        66.33897
603.43        65.74856
603.87         66.5251
604.30        66.66161
604.73        66.84511
605.16        65.94307
605.60        65.94557
606.03        65.63324
606.46        65.55025
606.89        65.69487
607.32        66.15382
607.76        65.73515
608.19        66.17548
608.62        66.09053
609.05        66.09059
609.48        65.96284
609.92        66.61263
610.35        66.38178
610.78        66.00255
611.21        65.96794
611.64        65.78928
612.07        66.03762
612.50        66.09766
612.94         66.1703
613.37        66.10607
613.80        65.83431
614.23        65.30561
614.66        65.32533
615.09        65.81739
615.52          66.025
615.96        65.83266
616.39        66.05486
616.82        66.35784
617.25        65.67717
617.68        65.78934
618.11        65.78811
618.54        66.13786
618.97          66.222
619.40        66.03867
619.84        65.85975
620.27        65.81682
620.70        65.74331
621.13        65.64269
621.56        65.28861
621.99        64.77162
622.42         64.6521
622.85        64.97021
623.28        64.86912
623.71        64.85055
624.14        64.97649
624.57        65.75524
625.00        64.99417
625.43        65.57632
625.86        65.41673
626.29        65.43199
626.72        64.99621
627.15        65.28044
627.58        65.29454
628.01        65.26379
628.44        65.27784
628.87        65.14246
629.30        64.81304
629.73        64.48837
630.16        64.70434
630.59        64.69646
631.02        64.96063
631.45        65.19229
631.88        65.37644
632.31        65.45872
632.74        65.53033
633.17        65.40059
633.60        65.27258
634.03        65.11006
634.46        64.90868
634.89        64.69913
635.32        64.55348
635.75         64.4953
636.18        64.44043
636.61        64.41068
637.04          64.474
637.47        64.62128
637.89        64.81914
638.32        64.97673
638.75         65.0106
639.18        64.89904
639.61        64.66929
640.04        64.40434
640.47        64.23183
640.90        64.18768
641.33        64.25657
641.76        64.38656
642.18         64.4272
642.61        64.43661
643.04        64.36914
643.47         64.3035
643.90        64.31102
644.33        64.40243
644.76        64.54342
645.18        64.68146
645.61        64.70768
646.04        64.60872
646.47        64.46867
646.90        64.33379
647.33        64.17207
647.75        64.02221
648.18        64.12982
648.61        64.47799
649.04        64.58504
649.47         64.3576
649.89        65.02826
650.32        64.83018
650.75         64.7346
651.18        64.33199
651.61        64.33813
652.03        64.75537
652.46        64.76529
652.89         64.3119
653.32        64.59691
653.74        64.78784
654.17        64.12714
654.60        64.64835
655.03        64.69244
655.46        64.08416
655.88        64.01642
656.31        66.45602
656.74        67.84411
657.16        68.47473
657.59        69.15963
658.02        65.88492
658.45        65.83404
658.87        64.97449
659.30        64.49729
659.73        64.86691
660.15        65.81598
660.58        64.53494
661.01        64.29407
661.44        64.27013
661.86         64.0711
662.29        63.66857
662.72        64.17309
663.14        64.27439
663.57        64.28397
664.00        63.96225
664.42        64.02908
664.85        64.50158
665.27        64.99155
665.70        65.31967
666.13        65.35892
666.55        65.22068
666.98        64.73872
667.41        64.10069
667.83        63.95961
668.26        63.72026
668.69        63.85331
669.11        64.08569
669.54        64.29163
669.96        64.42358
670.39        64.51762
670.82        64.58993
671.24        64.63349
671.67         64.6495
672.09        64.61263
672.52        64.55392
672.94        64.48927
673.37        64.43279
673.80        64.38011
674.22        64.33711
674.65        64.27258
675.07          64.204
675.50        64.13485
675.92          64.077
676.35        64.03425
676.77        64.01054
677.20        63.99537
677.62        64.00272
678.05        64.05576
678.47        64.14735
678.90        64.27087
679.32        64.37487
679.75        64.39145
680.17        64.30811
680.60        64.15487
681.02        63.99303
681.45        63.92155
681.87        63.97915
682.30        64.10843
682.72         64.2841
683.15        64.46723
683.57        64.62164
684.00        64.64611
684.42        64.58662
684.85        64.62019
685.27        64.75497
685.70        64.90125
686.12        64.99324
686.54         65.0071
686.97        64.93265
687.39        64.68761
687.82        64.51761
688.24        64.36884
688.66        64.32486
689.09         64.3552
689.51        64.43776
689.94         64.4982
690.36        64.52158
690.78        64.51636
691.21        64.51374
691.63        64.55627
692.06          64.653
692.48        64.79095
692.90        64.91376
693.33        64.94151
693.75        64.86063
694.17        64.67025
694.60        64.46523
695.02        64.42911
695.44        64.56969
695.87        64.77936
696.29        64.96825
696.71        64.93864
697.14        64.71008
697.56        64.48853
697.98        64.37182
698.41        64.33575
698.83        64.38767
699.25        64.61594
699.68        64.88516
700.10        64.97709
700.52        64.82705
700.94        64.51885
701.37        64.18976
701.79        64.06621
702.21        64.19423
702.64        64.48475
703.06        64.83364
703.48        65.05363
703.90         65.0856
704.33        64.98992
704.75        64.81577
705.17        64.63171
705.59         64.4789
706.01        64.33875
706.44        64.23594
706.86        64.23917
707.28        64.34389
707.70        64.51443
708.12        64.71783
708.55        64.92606
708.97        65.09516
709.39         65.1299
709.81        65.04325
710.23        64.97682
710.66        64.94851
711.08        64.89597
711.50        64.81148
711.92         64.7351
712.34        64.67559
712.76        64.63944
713.19        64.61626
713.61        64.61983
714.03        64.63988
714.45         64.6824
714.87        64.76826
715.29        64.93214
715.71        65.16672
716.13        65.43627
716.56         65.6807
716.98         65.8907
717.40        66.00789
717.82        66.04416
718.24        65.97239
718.66        65.75264
719.08        65.41296
719.50        65.00049
719.92        64.62134
720.34        64.43146
720.76        64.46337
721.19        64.64956
721.61          64.957
722.03        65.27277
722.45        65.53652
722.87        65.76268
723.29        65.89093
723.71        65.83136
724.13        65.58537
724.55        65.18938
724.97        64.77406
725.39        64.52295
725.81        64.48539
726.23        64.66811
726.65        65.00391
727.07        65.11313
727.49        65.35864
727.91        65.44383
728.33        65.51813
728.75        65.61718
729.17        65.75117
729.59        65.87927
730.01        65.96928
730.43        65.99637
730.85         65.9514
731.27        65.84995
731.69        65.71384
732.10         65.5703
732.52        65.43404
732.94        65.32066
733.36        65.25322
733.78        65.14024
734.20        64.97044
734.62        65.00025
735.04        65.31485
735.46        64.82997
735.88        65.46492
736.30        65.64486
736.72        65.90337
737.13        66.09707
737.55        66.14975
737.97        66.25117
738.39        66.35152
738.81        65.91158
739.23        65.46797
739.65        65.35331
740.06        65.64632
740.48          65.785
740.90        65.72654
741.32        65.81604
741.74        66.03487
742.16        66.17075
742.57        66.20215
742.99        66.17016
743.41        66.09709
743.83        66.00356
744.25        65.90392
744.67        65.77962
745.08         65.6825
745.50        65.67189
745.92        65.76426
746.34        65.94404
746.75        66.12598
747.17        66.15559
747.59        66.01044
748.01        65.73557
748.42        65.44388
748.84        65.31792
749.26        65.39571
749.68        65.61375
750.09        65.86763
750.51        65.98439
750.93        65.91989
751.35        65.76906
751.76        65.56972
752.18        65.34539
752.60        65.11662
753.01         65.0022
753.43        64.84767
753.85        64.81788
754.27        64.86341
754.68        65.06986
755.10        65.41143
755.52        65.42002
755.93        65.72889
756.35         65.7915
756.77         65.8554
757.18        65.89587
757.60        65.91528
758.02        66.10957
758.43        66.38274
758.85        65.86138
759.26        65.53207
759.68        65.23062
760.10        65.28321
760.51        65.41528
760.93        65.57179
761.34        65.71738
761.76        65.90948
762.18        66.06139
762.59        66.22202
763.01        66.32532
763.42        66.43458
763.84        66.46955
764.26         66.4433
764.67        66.47965
765.09        66.53931
765.50        66.18684
765.92        65.59807
766.33        65.39227
766.75        65.52583
767.16         65.5713
767.58        65.46639
768.00        65.44795
768.41        65.57066
768.83        65.90469
769.24        66.31178
769.66        66.40302
770.07        66.18941
770.49        65.90365
770.90        65.70862
771.32        65.97971
771.73        66.58545
772.15        66.77763
772.56        66.51485
772.97        66.20966
773.39        65.98777
773.80        65.88245
774.22          65.914
774.63        66.10915
775.05        66.35589
775.46        66.54539
775.88        66.60435
776.29        66.59011
776.70        66.52709
777.12        66.47375
777.53        66.46574
777.95        66.45483
778.36        66.45296
778.77        66.44296
779.19        66.43226
779.60        66.44164
780.02        66.46034
780.43        66.48888
780.84        66.53552
781.26        66.49203
781.67        66.42655
782.09        66.62437
782.50        66.99906
782.91        67.06197
783.33        66.80643
783.74        66.66753
784.15        66.65231
784.57         66.5397
784.98        66.39449
785.39        66.34241
785.81        66.44268
786.22        66.83778
786.63        67.37766
787.04        67.63911
787.46        67.57745
787.87         67.3551
788.28        67.11087
788.70        66.99084
789.11        67.01943
789.52        67.17197
789.93        67.36295
790.35        67.44508
790.76        67.39066
791.17        67.24003
791.58        67.07089
792.00        66.95088
792.41        66.92143
792.82        67.05438
793.23        67.25375
793.65        67.17522
794.06        66.94978
794.47        67.08253
794.88        67.42852
795.29        68.04716
795.71        67.57367
796.12        67.45976
796.53        67.40366
796.94        67.42835
797.35        67.56773
797.76        67.78714
798.18         67.9808
798.59        68.15901
799.00        68.30726
799.41        67.74921
799.82        67.79883
800.23        67.58927
800.64        67.52483
801.06        67.50301
801.47        67.53957
801.88        67.54189
802.29        67.47604
802.70        67.39571
803.11        67.30067
803.52         67.1851
803.93        67.07297
804.34        66.96465
804.75        66.92488
805.17        67.09988
805.58        67.53905
805.99          68.008
806.40        68.40378
806.81        68.95107
807.22        69.40147
807.63        68.90282
808.04        67.72441
808.45        67.10204
808.86        67.18988
809.27        67.39867
809.68         67.5542
810.09        67.60859
810.50        67.49381
810.91        67.23988
811.32        67.01173
811.73        67.06342
812.14        67.44254
812.55        68.05899
812.96        68.71079
813.37        69.02578
813.78        68.88959
814.19        68.43572
814.60        67.85072
815.01        67.38485
815.42        67.10841
815.83        66.95271
816.24        66.89451
816.65        66.89188
817.05        66.93256
817.46         67.0238
817.87        67.16196
818.28        67.28078
818.69        67.36411
819.10        67.39655
819.51        67.43642
819.92        67.59934
820.33        67.89711
820.74        68.28922
821.14        68.64723
821.55        68.76369
821.96        68.60467
822.37        68.23564
822.78         67.8195
823.19         67.6334
823.60        67.75501
824.00        68.12826
824.41        68.56168
824.82        68.82734
825.23         68.8349
825.64        68.65419
826.04        68.38262
826.45        68.13757
826.86        67.98704
827.27        67.91026
827.68         67.8671
828.08        67.82154
828.49        67.71152
828.90        67.56449
829.31        67.48048
829.72        67.61505
830.12        68.00476
830.53        68.54288
830.94        69.01042
831.35        68.99426
831.75         68.4328
832.16        67.45102
832.57        66.40063
832.97        65.81798
833.38        65.83802
833.79        66.27531
834.20        66.92565
834.60        67.45558
835.01        67.75589
835.42        67.97942
835.82        68.11473
836.23        68.06284
836.64        67.86813
837.04        67.49223
837.45        67.20644
837.86         67.5326
838.26        68.56446
838.67        70.11932
839.08        71.65543
839.48        72.14852
839.89        71.35149
840.29        69.63934
840.70         67.7821
841.11        66.70126
841.51        66.62964
841.92        67.27573
842.33        68.32064
842.73        69.18607
843.14        69.53397
843.54        69.58463
843.95        69.46983
844.35         69.4462
844.76        69.57425
845.17        69.75197
845.57        69.87202
845.98        69.76466
846.38          69.426
846.79        68.92128
847.19        68.44465
847.60        68.26482
848.00        68.44684
848.41        68.88555
848.81        69.38562
849.22        69.53796
849.62        69.28378
850.03        68.72955
850.43        68.10807
850.84        67.73034
851.24        67.73695
851.65        67.97436
852.05         68.4055
852.46        68.84195
852.86        69.18909
853.27        69.48924
853.67        69.64339
854.07        69.62608
854.48        69.42159
854.88        69.06107
855.29        68.57227
855.69        68.15918
856.10        67.83527
856.50        67.64817
856.90        67.56057
857.31        67.51424
857.71        67.53065
858.12        67.54867
858.52        67.60356
858.92        67.63859
859.33        67.61692
859.73         67.5972
860.13        67.48032
860.54        67.13539
860.94        66.60978
861.34        65.94097
861.75        65.34693
862.15        65.22263
862.55        65.62005
862.96        66.38339
863.36        67.28613
863.76        67.84476
864.17        67.89771
864.57        67.62009
864.97        67.10547
865.38        66.52131
865.78        65.98759
866.18        65.44345
866.58        65.04034
866.99        65.04967
867.39         65.5167
867.79        66.34113
868.19        67.24587
868.60        67.77061
869.00        67.82973
869.40        67.51315
869.80        66.96684
870.21        66.51008
870.61         66.3437
871.01        66.33318
871.41        66.39506
871.81        66.40868
872.22        66.32298
872.62        66.17649
873.02        66.02087
873.42        65.91338
873.82        65.86914
874.22        65.87267
874.63        65.82538
875.03        65.60178
875.43        65.18675
875.83        64.64086
876.23        64.15527
876.63        64.02005
877.03        64.28915
877.44        64.84336
877.84        65.49359
878.24        65.92223
878.64        65.98091
879.04        65.62673
879.44         65.0947
879.84        64.86071
880.24        64.98942
880.64        65.28661
881.04        65.52821
881.44         65.3836
881.84        64.79301
882.24        63.92403
882.65        63.01567
883.05        62.41089
883.45        62.22342
883.85        62.35995
884.25        62.75053
884.65        63.26211
885.05        63.80559
885.45        64.39046
885.85         64.9435
886.25        65.36703
886.65        65.63662
887.05         65.7393
887.45        65.71818
887.85        65.67473
888.25        65.63475
888.65         65.5787
889.04        65.46683
889.44        65.25551
889.84        64.93745
890.24        64.56351
890.64        64.19054
891.04        63.90473
891.44        63.73972
891.84        63.67084
892.24        63.69164
892.64        63.78434
893.04        63.93639
893.44         64.1644
893.83        64.42871
894.23        64.60938
894.63        64.69965
895.03        64.69585
895.43         64.7029
895.83        64.90896
896.23        65.32658
896.63        65.87089
897.02        66.33982
897.42        66.43778
897.82        66.10956
898.22        65.49643
898.62        64.77657
899.01        64.20209
899.41        63.87897
899.81        63.73066
900.21        63.75443
900.61         63.9425
901.00        64.25246
901.40        64.66562
901.80        65.07614
902.20        65.30427
902.59        65.31586
902.99        65.15014
903.39         64.8663
903.79        64.57635
904.18        64.32622
904.58        64.09431
904.98        63.96251
905.38        64.05682
905.77          64.385
906.17        64.93952
906.57        65.50456
906.96         65.7151
907.36        65.47672
907.76        64.89024
908.15        64.28884
908.55        64.18974
908.95        64.70546
909.34        65.68413
909.74        66.70022
910.14        67.13835
910.53        66.81464
910.93         65.9547
911.33        64.88608
911.72        64.09681
912.12        63.79658
912.52        63.84824
912.91        64.07437
913.31        64.22782
913.70        64.23625
914.10        64.13937
914.49         64.1425
914.89        64.49409
915.29        65.24167
915.68        66.28343
916.08        67.20099
916.47        67.38891
916.87         66.7569
917.26        65.51019
917.66        64.21656
918.05        63.57188
918.45        63.73698
918.84        64.55585
919.24        65.61036
919.64        66.28368
920.03        66.38142
920.42        66.04589
920.82        65.62759
921.21         65.6202
921.61        66.11486
922.00        66.96364
922.40        67.79561
922.79        68.12398
923.19         67.7888
923.58        67.02072
923.98        66.13951
924.37        65.52615
924.77        65.31007
925.16        65.33816
925.55        65.53711
925.95        65.76528
926.34        65.95373
926.74        66.11229
927.13        66.16471
927.52        65.91443
927.92        65.40079
928.31        64.69498
928.70        63.96075
929.10        63.42546
929.49        63.14622
929.89        63.00613
930.28          63.126
930.67         63.5937
931.07        64.33839
931.46         65.3809
931.85        66.28429
932.24         66.3857
932.64        65.62124
933.03        64.17995
933.42         62.6824
933.82         62.0395
934.21        62.45401
934.60        63.71782
934.99        65.32211
935.39        66.33109
935.78         66.4832
936.17        65.94926
936.56        65.17551
936.96        64.86258
937.35        65.17789
937.74        65.88497
938.13        66.53918
938.53        66.48737
938.92         65.6229
939.31        64.24187
939.70        62.83545
940.09        62.07558
940.49        62.09267
940.88        62.72265
941.27        63.66444
941.66        64.35539
942.05        64.60352
942.44        64.59117
942.84        64.51752
943.23        64.68839
943.62        65.18271
944.01         65.8145
944.40        66.49236
944.79        67.11677
945.18        67.59666
945.57        67.94895
945.97        67.99368
946.36        67.53532
946.75        66.56322
947.14        65.25983
947.53        63.91526
947.92        62.91907
948.31        62.38096
948.70        62.20506
949.09        62.37585
949.48        62.83809
949.87         63.5108
950.26        64.38445
950.65        65.23941
951.04         65.7187
951.43        65.72997
951.82        65.33092
952.21        64.74887
952.60        64.39207
952.99        64.38885
953.38        64.65089
953.77        65.02831
954.16         65.2792
954.55        65.31813
954.94        65.18159
955.33        64.99688
955.72        64.97332
956.11        65.15189
956.50        65.48061
956.89        65.66582
957.28        65.23775
957.66        64.14383
958.05        62.62832
958.44        61.19379
958.83        60.53946
959.22        60.78472
959.61        61.72876
960.00        62.93884
960.39        63.59923
960.78        63.44313
961.16         62.7113
961.55        61.81814
961.94        61.30083
962.33         61.3131
962.72        61.70547
963.11         62.2882
963.49        62.74135
963.88        62.85317
964.27        62.72083
964.66        62.56653
965.04        62.73922
965.43         63.2494
965.82        64.03668
966.21        64.69528
966.60        64.49209
966.98        63.28635
967.37        61.45987
967.76        59.70335
968.15         58.8608
968.53        59.08515
968.92        60.17377
969.31        61.65373
969.69        62.56004
970.08        62.47143
970.47        61.67124
970.86        60.77109
971.24          60.657
971.63        61.51297
972.02        63.09322
972.40        64.81859
972.79        65.31602
973.17         64.2989
973.56        62.30928
973.95        60.22982
974.33        59.18199
974.72        59.38234
975.11        60.43949
975.49        61.94941
975.88        63.05296
976.26        63.42519
976.65        63.29461
977.04        62.75767
977.42        61.91953
977.81        60.88758
978.19        59.63639
978.58        58.57973
978.96        58.36922
979.35        59.10538
979.74        60.63067
980.12        62.55455
980.51         63.8797
980.89        64.37124
981.28        64.23911
981.66        63.74703
982.05           63.28
982.43        62.99651
982.82        62.73957
983.20        62.70234
983.59        63.16428
983.97        64.22882
984.35        65.82127
984.74        67.41159
985.12        68.29681
985.51        68.21002
985.89        67.36343
986.28        66.26679
986.66         65.6413
987.04        65.73309
987.43        66.28976
987.81        67.04331
988.20        67.36022
988.58        67.06276
988.96        66.32398
989.35        65.39966
989.73        64.60552
990.12          64.035
990.50        63.64987
990.88        63.31134
991.27        62.83788
991.65        62.21728
992.03        61.50859
992.42        61.03487
992.80        61.20621
993.18        62.07751
993.56        63.53855
993.95        64.96844
994.33        65.39425
994.71        64.45849
995.10        62.61606
995.48        60.61889
995.86        59.63306
996.24        59.93557
996.63         61.0955
997.01        62.90017
997.39        64.49986
997.77        65.42343
998.15        65.95154
998.54         65.9495
998.92        65.12018
999.30         63.6435
999.68         61.6242
1000.06        59.82196
1000.45        59.31424
1000.83        60.38527
1001.21        62.86585
1001.59         66.0235
1001.97        67.98903
1002.35        68.01781
1002.73        66.67348
1003.12        64.95052
1003.50        64.04396
1003.88        64.35175
1004.26        65.38943
1004.64          66.921
1005.02        68.42007
1005.40        69.51048
1005.78        70.45657
1006.16        70.82404
1006.54        69.90126
1006.92        67.80535
1007.30        64.86375
1007.69         62.1838
1008.07        61.18176
1008.45        62.28346
1008.83        65.15218
1009.21        68.99146
1009.59        71.68436
1009.97        72.09998
1010.35        70.80872
1010.73        68.36903
1011.11        65.64555
1011.49        63.17141
1011.86        60.85315
1012.24        59.12547
1012.62        58.55228
1013.00        59.15957
1013.38        60.85207
1013.76        63.30465
1014.14        65.43473
1014.52        66.54097
1014.90        66.73775
1015.28         66.0862
1015.66        64.80902
1016.04        63.11504
1016.41        60.99028
1016.79        58.89465
1017.17        57.80711
1017.55        57.98934
1017.93        59.13879
1018.31        60.79444
1018.69        62.27642
1019.06        63.40233
1019.44        64.38822
1019.82         64.9779
1020.20        64.66603
1020.58        63.40435
1020.95        61.30817
1021.33        59.34904
1021.71        58.52754
1022.09        58.97309
1022.46        60.70698
1022.84        62.93774
1023.22        63.66663
1023.60        62.20825
1023.97        59.12473
1024.35        56.37227
1024.73        56.12905
