SpectraSmart Spectrum 2.9.0.0
--------- Device Information -----------
Spectrum Name :  反射率_0
Saving Time :  2024/04/26 23:22:17
Spectro-Module Model Name : SE2030-DUVN
Spectro-Module Serial Number : OS361AC55029948
Wavelength Start : 200
Wavelength End : 1025
Wavelength Unit : Wavelength(nm)
Spectrum Unit : Reflectance(%)
-----------Spectrum Setting ------------
Integration Time : 20ms
Average : 10
Boxcar : 0
Background removal :  enabled
linearity correction :  enabled
SC :  disabled
Intensity correction :  disabled
DWT denoise :  enabled
savitzky-golay :  disabled
FFT :  disabled
Running average :  disabled
Kalman :  disabled
High pass :  disabled
---------------BEGIN--------------------
Wavelength(nm)             Reflectance(%)
200.29               0
200.75        59.01759
201.21        59.62026
201.67        60.36922
202.13        60.21642
202.58        58.96336
203.04        57.11896
203.50        55.51429
203.96        56.27431
204.42        60.64503
204.88        68.04845
205.34        75.82556
205.80        79.45023
206.26        77.75632
206.72        72.36376
207.18        66.34773
207.64        61.96707
208.10        59.20265
208.55        57.84322
209.01        56.54329
209.47        53.99117
209.93        51.13122
210.39         49.2416
210.85        49.54838
211.31         53.4423
211.77        62.62506
212.23        83.40446
212.69        133.2853
213.14         208.367
213.60        189.5887
214.06        124.9008
214.52        85.38076
214.98        69.21785
215.44        63.83121
215.90        62.39563
216.36         63.7733
216.81        67.31887
217.27        73.05038
217.73        83.59863
218.19        96.40478
218.65        97.07693
219.11        83.30651
219.57        65.95064
220.02        54.44221
220.48          52.645
220.94        59.08784
221.40        74.15423
221.86        97.53316
222.32        114.4219
222.77        110.7582
223.23        95.66817
223.69        79.81973
224.15        69.42942
224.61        63.77713
225.06        60.22139
225.52        58.04543
225.98        56.26005
226.44        54.64701
226.90         53.6073
227.36        53.17951
227.81         53.3412
228.27        54.05967
228.73        54.80263
229.19        55.72342
229.65        57.18174
230.10        59.01927
230.56        61.11696
231.02        62.37197
231.48        61.13504
231.93        57.44067
232.39        52.50083
232.85        47.80907
233.31        45.24621
233.77        44.96649
234.22        46.36024
234.68        48.43341
235.14        49.70744
235.60        49.71288
236.05        48.86935
236.51        47.62096
236.97        46.94342
237.43        47.28223
237.88          48.375
238.34        49.87109
238.80        51.51296
239.26        53.30322
239.71        55.81033
240.17        59.08903
240.63        63.32977
241.08        68.50124
241.54        73.78494
242.00        79.51623
242.46        87.24421
242.91        99.03133
243.37         116.317
243.83         139.588
244.28        159.0861
244.74        159.4098
245.20        140.1971
245.66        116.3581
246.11        100.8931
246.57        94.44465
247.03        93.37832
247.48        93.53531
247.94        88.97726
248.40        80.90234
248.85        72.84832
249.31        67.15289
249.77         64.2375
250.22        63.30816
250.68        63.72365
251.14         64.6016
251.59        63.85056
252.05        61.27598
252.51        58.49356
252.96        56.45926
253.42        56.24266
253.88        57.26706
254.33        58.16687
254.79        59.57694
255.25        61.68858
255.70        64.15167
256.16        67.01824
256.62        68.20065
257.07        64.99685
257.53        59.36146
257.99        53.48443
258.44        49.09256
258.90        47.81271
259.35        48.54662
259.81        50.46182
260.27        52.31416
260.72        52.62017
261.18        51.51549
261.63        49.52812
262.09        47.52626
262.55        45.96724
263.00        44.83129
263.46        44.00257
263.91        43.19378
264.37         42.3196
264.83        41.33596
265.28        40.29386
265.74        39.41605
266.19        38.70173
266.65        38.19791
267.11        37.80298
267.56        37.42389
268.02        36.92721
268.47        36.29022
268.93        35.57276
269.38        34.83342
269.84        34.21048
270.30        33.70825
270.75        33.26356
271.21          32.843
271.66         32.3467
272.12        31.75689
272.57        31.10027
273.03        30.38171
273.48        29.60647
273.94        28.84223
274.39        28.06909
274.85        27.40661
275.31        26.90445
275.76        26.53819
276.22        26.30494
276.67        26.09323
277.13        25.80678
277.58        25.38883
278.04        24.89485
278.49        24.34661
278.95        23.87535
279.40        23.46981
279.86        23.15269
280.31        22.84036
280.77        22.49482
281.22        22.08424
281.68        21.67189
282.13        21.30354
282.59        21.10138
283.04        21.04893
283.50        21.11426
283.95        21.19826
284.41        21.15026
284.86        20.94368
285.32        20.65785
285.77        20.36935
286.22        20.23352
286.68        20.27451
287.13        20.40194
287.59        20.57655
288.04        20.70397
288.50        20.76593
288.95         20.7727
289.41        20.71478
289.86        20.52378
290.32        20.24243
290.77        19.89684
291.22        19.60053
291.68        19.51201
292.13         19.6599
292.59        20.01809
293.04        20.51959
293.50        21.06385
293.95        21.61146
294.40        22.20154
294.86        22.85512
295.31        23.59739
295.77        24.44591
296.22        25.37666
296.68        26.40402
297.13        27.54548
297.58        28.80644
298.04        30.18481
298.49        31.65088
298.95        33.16717
299.40        34.70871
299.85        36.28299
300.31        37.89919
300.76        39.56282
301.21        41.28204
301.67        43.06683
302.12        44.88963
302.58         46.7777
303.03        48.69771
303.48        50.66979
303.94        52.70744
304.39        54.78062
304.84         56.9048
305.30        59.08523
305.75        61.28967
306.20        63.54506
306.66        65.85138
307.11        68.16232
307.57         70.4325
308.02        72.50436
308.47        74.37775
308.93        76.08929
309.38        77.74435
309.83        79.61875
310.29        81.75867
310.74        84.07781
311.19        86.33913
311.65        88.11967
312.10        89.30679
312.55        90.03181
313.00        90.59671
313.46         91.4819
313.91        92.78069
314.36        94.37206
314.82         96.0182
315.27        97.33681
315.72        98.19576
316.18        98.75254
316.63         99.1348
317.08        99.58978
317.53         100.203
317.99        100.8793
318.44        101.5973
318.89        102.2994
319.35        102.9427
319.80        103.5511
320.25        104.0885
320.70        104.4924
321.16        104.7555
321.61        104.9375
322.06        105.0626
322.51        105.1884
322.97        105.3321
323.42          105.49
323.87        105.7368
324.32        106.2119
324.78        106.8878
325.23        107.7994
325.68        108.6766
326.13        109.0789
326.59        108.9078
327.04        108.3125
327.49        107.6337
327.94        107.4544
328.39         107.917
328.85        108.8245
329.30        109.9761
329.75        110.7402
330.20        110.9182
330.66        110.6704
331.11        110.3096
331.56        110.2601
332.01        110.6558
332.46        111.3292
332.92        112.0662
333.37        112.6798
333.82        113.0183
334.27        113.2054
334.72        113.2835
335.17        113.2988
335.63        113.2976
336.08        113.3257
336.53        113.4911
336.98        114.0285
337.43        114.9589
337.88          116.17
338.34        117.4605
338.79        118.6026
339.24        119.4234
339.69        119.9948
340.14        120.2339
340.59        120.0407
341.05        119.5061
341.50        118.6874
341.95        117.9594
342.40        117.8893
342.85        118.5861
343.30        119.8932
343.75        121.4365
344.20        122.5692
344.66        123.0911
345.11        123.1601
345.56        122.9937
346.01         122.962
346.46        123.1864
346.91        123.5512
347.36        123.9378
347.81        124.1895
348.26        124.2552
348.72        124.1829
349.17        124.0877
349.62        124.1717
350.07        124.4595
350.52        124.9046
350.97        125.2284
351.42        124.9927
351.87        124.1581
352.32        122.9033
352.77        121.6797
353.22        121.1428
353.67        121.4045
354.13        122.2389
354.58        123.2356
355.03        123.6661
355.48        123.3151
355.93        122.3946
356.38        121.2439
356.83        120.3742
357.28        119.9091
357.73        119.6714
358.18        119.4341
358.63         118.857
359.08        117.8655
359.53        116.6094
359.98        115.2915
360.43        114.1733
360.88        113.3139
361.33        112.6331
361.78        111.9801
362.23        111.1297
362.68        110.0466
363.13        108.8205
363.58        107.6204
364.03        106.6922
364.48         106.073
364.93        105.6613
365.38        105.2919
365.83        104.7097
366.28        103.8513
366.73        102.8082
367.18        101.6887
367.63        100.6574
368.08        99.76611
368.53        98.96159
368.98        98.21755
369.43        97.49016
369.88        96.76151
370.33        96.06236
370.78        95.37474
371.23        94.66688
371.68        93.93922
372.13        93.18494
372.58          92.465
373.03        91.88085
373.48        91.43237
373.93        91.07394
374.38         90.6843
374.83        90.07732
375.28        89.22173
375.72        88.17161
376.17         87.1021
376.62         86.1667
377.07        85.42755
377.52        84.86392
377.97        84.42048
378.42        84.01812
378.87        83.62527
379.32        83.22659
379.77         82.9058
380.22        82.78217
380.67        82.83722
381.11        83.04745
381.56        83.09988
382.01        82.58116
382.46        81.47023
382.91        79.98294
383.36        78.54333
383.81        77.72424
384.26        77.60939
384.71        77.99873
385.15        78.61255
385.60        78.95599
386.05        78.86483
386.50        78.48034
386.95        77.88997
387.40        77.24116
387.85        76.61502
388.29        75.92252
388.74        75.31894
389.19        74.83083
389.64        74.45751
390.09        74.19551
390.54        73.98668
390.98        73.70628
391.43        73.37075
391.88        73.00337
392.33        72.66261
392.78        72.41143
393.23         72.2503
393.67        72.16862
394.12        72.16432
394.57        71.95812
395.02        71.58838
395.47        71.38477
395.91         71.3338
396.36        71.09475
396.81        70.70187
397.26        70.37946
397.71          70.115
398.15        69.84135
398.60         69.6497
399.05        69.28529
399.50        68.88575
399.95        69.13721
400.39        69.84042
400.84        69.74894
401.29        68.88589
401.74        68.42268
402.18        68.38071
402.63        67.87162
403.08        67.07232
403.53        66.74342
403.97        66.93291
404.42        67.36546
404.87        67.79494
405.32        67.88147
405.76        67.54365
406.21        66.93404
406.66        66.27367
407.11        65.97166
407.55        66.14845
408.00        66.46773
408.45        66.80599
408.90         67.3764
409.34        67.85006
409.79        67.28473
410.24        66.03231
410.68        65.45137
411.13        65.66528
411.58        65.98053
412.03        66.19733
412.47        66.26937
412.92        66.09932
413.37        65.75865
413.81        65.38438
414.26        65.22666
414.71        65.31045
415.15        65.58523
415.60        65.92894
416.05        66.20109
416.49        66.34776
416.94        66.40695
417.39        66.42252
417.83        66.44286
418.28        66.49805
418.73        66.57097
419.17        66.66218
419.62        66.78169
420.07        66.90702
420.51        67.00278
420.96        67.10104
421.41         67.1369
421.85         67.0755
422.30        67.16962
422.74        67.26647
423.19        66.88229
423.64        66.15674
424.08        65.96458
424.53        66.33857
424.98        66.58398
425.42        66.67021
425.87        67.14317
426.31        67.80468
426.76        67.77182
427.21         67.1384
427.65        66.77174
428.10        66.78269
428.54        66.82097
428.99        66.95117
429.44        67.15546
429.88        67.46671
430.33        68.22524
430.77        69.07467
431.22        69.40033
431.66        69.14239
432.11        68.42793
432.56        67.66028
433.00        67.67108
433.45        68.49625
433.89        69.41306
434.34        69.80986
434.78        69.75774
435.23        69.36299
435.67        67.41796
436.12        68.11908
436.57        68.46995
437.01        69.37454
437.46        69.75655
437.90        69.54047
438.35        69.31869
438.79        69.18566
439.24        69.15411
439.68        69.23187
440.13        69.43422
440.57        69.78321
441.02        70.07999
441.46        70.27515
441.91        70.94167
442.35        71.71561
442.80        71.44875
443.24        70.42131
443.69        70.45745
444.13         71.4559
444.58        71.86155
445.02        71.62172
445.47        71.64247
445.91        71.97794
446.36        72.27415
446.80        72.50088
447.24        72.83007
447.69        73.19894
448.13        73.13947
448.58        73.13304
449.02        72.97755
449.47        72.88953
449.91        72.83655
450.36        72.86896
450.80        73.00413
451.25        73.20538
451.69        73.32774
452.13        73.35856
452.58        73.33589
453.02        73.29444
453.47        73.26771
453.91        73.25113
454.36        73.28145
454.80         73.3353
455.24        73.03632
455.69        72.86113
456.13        72.56673
456.58        72.36107
457.02        71.87899
457.46        71.33821
457.91        71.49345
458.35        72.08054
458.79        72.09287
459.24        71.53786
459.68        70.84375
460.13        70.26791
460.57        70.10464
461.01        70.49946
461.46        70.55811
461.90        71.07896
462.34        72.00539
462.79        71.56438
463.23        71.69016
463.68        71.72594
464.12        71.59522
464.56        71.20883
465.01        70.43937
465.45        69.50201
465.89        69.16538
466.34         69.3982
466.78        69.66681
467.22        69.84932
467.67        69.85797
468.11        69.74289
468.55        69.74496
468.99        69.85647
469.44        69.79037
469.88        69.56289
470.32           69.37
470.77        69.25538
471.21        69.19023
471.65        69.16949
472.10         69.2066
472.54        69.26656
472.98        69.25284
473.42        69.14304
473.87        69.11909
474.31        69.09235
474.75        68.68996
475.20        68.14845
475.64        67.99106
476.08        68.72388
476.52         68.8418
476.97        68.41603
477.41        68.23172
477.85        68.47969
478.29        67.92085
478.74        67.93684
479.18        68.90509
479.62        68.29586
480.06        68.42596
480.50        68.39471
480.95         68.3468
481.39        68.28837
481.83        68.18258
482.27        67.71001
482.72        68.68671
483.16        68.12659
483.60        68.31798
484.04         68.3826
484.48        68.72199
484.93         68.4646
485.37         68.6891
485.81         67.7379
486.25        67.42732
486.69         68.3898
487.14        69.32515
487.58        68.08001
488.02        68.53139
488.46        67.73827
488.90        67.62193
489.34        68.73833
489.79        69.37327
490.23        69.10261
490.67        68.42545
491.11         67.5388
491.55        67.42852
491.99        67.98705
492.43        68.03638
492.88        67.54009
493.32        67.30392
493.76        67.40392
494.20        67.51189
494.64        67.60474
495.08        67.83469
495.52        68.08835
495.96        68.00147
496.41        67.61594
496.85        67.44424
497.29        67.41877
497.73        67.36584
498.17        66.55296
498.61        66.71535
499.05        67.37645
499.49        67.85651
499.93        67.75619
500.37        67.73184
500.82        67.78365
501.26        67.61063
501.70        67.66652
502.14        67.76213
502.58        67.79752
503.02        67.89076
503.46        67.96912
503.90        68.07809
504.34        68.16263
504.78         68.1165
505.22        67.92022
505.66        67.64782
506.10        67.40746
506.54        67.23717
506.98         67.1412
507.42        67.60684
507.86        67.62474
508.30        67.78436
508.74        67.76839
509.18        67.64275
509.62        67.46313
510.06        67.33792
510.50        67.30877
510.94        67.33711
511.38          67.389
511.82        67.41058
512.26        67.38861
512.70        67.34534
513.14        67.31875
513.58        67.36463
514.02        67.49162
514.46        67.67313
514.90        67.85821
515.34        67.97354
515.78        67.99696
516.22        67.93968
516.66        67.84001
517.10        67.78934
517.54        67.76208
517.98        67.78477
518.42        67.80798
518.86        67.77654
519.30        67.68104
519.74        67.53967
520.18        67.41407
520.62        67.39417
521.06        67.49609
521.50        67.69663
521.93         67.9103
522.37        67.97649
522.81        67.87273
523.25        67.64368
523.69        67.40484
524.13        67.33797
524.57        67.47259
525.01        67.73758
525.45        68.01629
525.89        68.12025
526.32        67.99722
526.76        67.74005
527.20        67.41806
527.64        67.14354
528.08         66.9618
528.52        66.83534
528.96        66.78668
529.40        66.85242
529.83        67.01785
530.27        67.27824
530.71        67.53712
531.15        67.64246
531.59        67.56338
532.03        67.33791
532.46        67.05209
532.90        66.89606
533.34        66.90124
533.78        66.97495
534.22        67.05261
534.66        67.11613
535.09        67.09234
535.53        66.86732
535.97        66.51016
536.41        66.29875
536.85        66.27071
537.28        66.28513
537.72        66.33984
538.16        66.48441
538.60        66.69806
539.04        66.95938
539.47        67.18849
539.91        67.30647
540.35        67.28245
540.79        67.14462
541.22        66.95391
541.66        66.83411
542.10        66.81149
542.54        66.85606
542.97        66.91875
543.41        66.95197
543.85        66.93029
544.29        66.88185
544.72        66.81827
545.16        66.79425
545.60         66.8095
546.04        66.85519
546.47        66.92139
546.91        67.00022
547.35        67.08031
547.79        67.12805
548.22        67.14707
548.66        67.20731
549.10        67.33979
549.53        67.33185
549.97         67.2085
550.41        67.00237
550.84        66.79856
551.28        66.73886
551.72        66.80652
552.15        66.77905
552.59        67.16267
553.03        66.70745
553.46         67.3414
553.90        67.37512
554.34        67.32961
554.77        67.22205
555.21        67.12669
555.65        67.11104
556.08        67.16413
556.52        67.26608
556.96          67.345
557.39        67.37295
557.83        67.32862
558.27        67.08118
558.70        66.70682
559.14        66.53952
559.57        66.55846
560.01        66.53176
560.45        66.47635
560.88        66.53538
561.32        66.72503
561.75        67.02785
562.19        67.35187
562.63        67.30451
563.06        66.96557
563.50        66.91663
563.93        67.09941
564.37        67.14362
564.80        67.07813
565.24        67.01059
565.68        66.79322
566.11        67.52683
566.55        66.78394
566.98        66.57764
567.42        66.36011
567.85        66.44237
568.29        66.79338
568.72        67.12811
569.16        67.49193
569.60          67.589
570.03        67.60907
570.47        67.81671
570.90        68.35851
571.34        67.02848
571.77        67.83127
572.21        67.80627
572.64         67.7987
573.08        68.22092
573.51        67.47666
573.95        67.47398
574.38        67.91674
574.82          67.831
575.25        67.36471
575.69        67.67134
576.12        67.73309
576.56        67.11543
576.99        67.29351
577.42        67.39095
577.86        67.48396
578.29        68.25474
578.73        68.13612
579.16        68.19324
579.60        67.51457
580.03         67.5413
580.47        67.16286
580.90        68.38353
581.33        68.02293
581.77        68.19721
582.20        67.95779
582.64        68.14123
583.07        67.60518
583.51        67.50426
583.94        67.71512
584.37        67.87869
584.81        67.83436
585.24        67.81863
585.68        67.76997
586.11        67.92908
586.54        67.77833
586.98        67.25767
587.41        66.72505
587.85        67.16137
588.28        67.00626
588.71        67.13483
589.15         66.8514
589.58        67.03446
590.01         66.8663
590.45        66.96724
590.88        67.94127
591.31        67.89549
591.75        67.24974
592.18        66.72937
592.61        66.54623
593.05        67.24578
593.48        67.90183
593.91        67.69263
594.35        67.90468
594.78         67.2649
595.21        66.48027
595.65        66.72038
596.08        68.01057
596.51        68.00558
596.94         67.3541
597.38        67.00402
597.81        67.14171
598.24        67.96497
598.68        67.51598
599.11        67.29089
599.54        68.16671
599.97        67.74895
600.41         67.6425
600.84        67.16154
601.27         67.6869
601.70         67.3688
602.14        67.69558
602.57        67.47239
603.00        67.28817
603.43        66.65477
603.87        67.45737
604.30        67.60421
604.73         67.6645
605.16        66.90099
605.60        67.12176
606.03        66.82367
606.46        66.51899
606.89        66.86075
607.32        67.22375
607.76        66.98747
608.19        67.32008
608.62        67.21834
609.05        67.16504
609.48        67.08285
609.92        67.94787
610.35        67.20547
610.78        67.23381
611.21        67.02104
611.64        66.96345
612.07        67.18639
612.50        67.22838
612.94        67.27733
613.37        67.14803
613.80        67.17801
614.23        66.49418
614.66        66.58784
615.09        67.11868
615.52         67.3172
615.96        67.08688
616.39        67.20406
616.82        67.45313
617.25        66.90664
617.68        66.92307
618.11        66.91956
618.54        67.21176
618.97        67.29065
619.40        67.05295
619.84        66.82411
620.27        66.89924
620.70        67.00539
621.13        67.13857
621.56        66.60842
621.99        65.55656
622.42        65.62395
622.85        66.28105
623.28        66.09745
623.71        66.16633
624.14        66.76017
624.57        66.67136
625.00        66.44418
625.43        66.73031
625.86        66.62093
626.29        66.49212
626.72        66.19508
627.15        66.36566
627.58        66.42421
628.01        66.47147
628.44        66.51031
628.87        66.54568
629.30        66.20742
629.73        66.22124
630.16        66.16385
630.59        66.24241
631.02        66.34698
631.45        66.45766
631.88        66.58059
632.31        66.68699
632.74         66.7598
633.17         66.7736
633.60        66.70394
634.03        66.55443
634.46        66.34072
634.89        66.11094
635.32        65.93904
635.75        65.86379
636.18        65.84127
636.61        65.86652
637.04        65.91875
637.47        65.97118
637.89        66.07307
638.32        66.18112
638.75        66.14825
639.18        65.93812
639.61        66.07515
640.04        65.72121
640.47        65.67502
640.90        65.69375
641.33        65.78484
641.76        65.88756
642.18        65.92439
642.61        65.86341
643.04        65.72781
643.47        65.58996
643.90         65.5664
644.33          65.674
644.76        65.86806
645.18        66.06307
645.61        66.10314
646.04        65.96989
646.47         65.7303
646.90         65.4624
647.33        65.30064
647.75        65.26208
648.18        65.29613
648.61        65.43563
649.04        65.62955
649.47         65.7031
649.89        66.38458
650.32        65.91222
650.75        65.72539
651.18        65.47356
651.61        65.70928
652.03        66.33499
652.46        66.50525
652.89        66.18869
653.32        66.04608
653.74        66.25268
654.17        65.63407
654.60        66.33258
655.03        65.97238
655.46        65.77242
655.88        65.55525
656.31        67.47218
656.74        68.37805
657.16        69.06284
657.59        69.70246
658.02        66.73566
658.45        67.16537
658.87        65.98287
659.30        66.39639
659.73        66.08751
660.15        67.14812
660.58        65.85864
661.01        65.73854
661.44        65.86259
661.86        65.79347
662.29         65.4766
662.72        65.88648
663.14        65.75016
663.57         65.7272
664.00        65.54575
664.42        65.60482
664.85        65.92003
665.27        66.29735
665.70         66.5854
666.13        66.68262
666.55        66.56109
666.98        66.18557
667.41        65.66961
667.83        65.62897
668.26        65.42983
668.69        65.55893
669.11        65.76017
669.54        65.92281
669.96        66.00795
670.39        66.12196
670.82        66.24376
671.24        66.15176
671.67        65.93218
672.09        65.90804
672.52        66.08456
672.94        66.23484
673.37        66.29133
673.80        66.16666
674.22         65.9277
674.65        65.81096
675.07        65.85995
675.50        65.90144
675.92        65.90689
676.35        65.89987
676.77        65.87312
677.20         65.8176
677.62         65.7596
678.05        65.74329
678.47        65.77201
678.90        65.83336
679.32        65.90034
679.75        65.93597
680.17          65.926
680.60        65.91096
681.02        65.89827
681.45        65.84644
681.87         65.8027
682.30        65.85016
682.72        65.98478
683.15        66.11388
683.57        66.20273
684.00        66.16168
684.42         66.0541
684.85        66.08024
685.27        66.24279
685.70        66.46969
686.12        66.66988
686.54        66.68574
686.97        66.52733
687.39        66.40367
687.82         66.3389
688.24        66.23647
688.66        66.11134
689.09        66.04805
689.51        66.05611
689.94        66.06708
690.36        66.08041
690.78        66.10255
691.21        66.14259
691.63        66.20449
692.06        66.28568
692.48        66.38392
692.90        66.45795
693.33        66.44501
693.75        66.33731
694.17        66.14977
694.60        65.96618
695.02         65.8966
695.44        65.96577
695.87        66.20906
696.29        66.52611
696.71        66.53648
697.14        66.28819
697.56        66.19606
697.98        66.29169
698.41        66.40797
698.83        66.34339
699.25        66.46886
699.68        66.63651
700.10        66.66626
700.52        66.51409
700.94        66.25128
701.37        66.00105
701.79        65.96074
702.21        66.16254
702.64        66.52666
703.06         66.9258
703.48        67.13575
703.90          67.094
704.33        66.86657
704.75        66.55415
705.17        66.31139
705.59        66.19891
706.01        66.17788
706.44        66.21112
706.86        66.27095
707.28        66.33234
707.70        66.36882
708.12        66.41535
708.55        66.60648
708.97        66.89097
709.39        66.99906
709.81        66.92326
710.23        66.90045
710.66        66.93709
711.08        66.90466
711.50        66.78574
711.92         66.6435
712.34        66.49253
712.76        66.33382
713.19        66.19099
713.61        66.13795
714.03        66.17734
714.45        66.30011
714.87        66.49027
715.29        66.72141
715.71        66.96986
716.13        67.21626
716.56        67.41965
716.98        67.60797
717.40          67.734
717.82        67.79526
718.24        67.75544
718.66        67.56171
719.08        67.23746
719.50        66.83785
719.92        66.46751
720.34        66.27795
720.76        66.30245
721.19        66.47165
721.61        66.76363
722.03        67.08497
722.45        67.37638
722.87        67.64375
723.29        67.80825
723.71         67.7486
724.13        67.46368
724.55        67.00565
724.97        66.50919
725.39        66.20545
725.81          66.161
726.23        66.29211
726.65        66.53376
727.07        66.91965
727.49         67.1583
727.91        67.46676
728.33        67.73587
728.75        67.91088
729.17        67.97313
729.59        67.91586
730.01        67.79266
730.43         67.7028
730.85        67.67188
731.27        67.67898
731.69         67.6775
732.10        67.58619
732.52        67.39385
732.94        67.15367
733.36        66.94308
733.78        66.75774
734.20        66.61165
734.62        66.73163
735.04        67.16519
735.46        66.74924
735.88        67.44643
736.30        67.62064
736.72        67.82949
737.13        68.05568
737.55        68.19787
737.97        68.17793
738.39        67.99709
738.81        67.65142
739.23        67.29119
739.65        67.39322
740.06        67.83672
740.48        68.05892
740.90        67.99265
741.32        67.96532
741.74        68.03536
742.16        68.12415
742.57        68.24126
742.99        68.41034
743.41        68.55219
743.83        68.47138
744.25        68.18272
744.67        67.85496
745.08        67.61403
745.50        67.52487
745.92        67.62952
746.34        67.93152
746.75        68.30563
747.17        68.48464
747.59        68.41565
748.01        68.22765
748.42        67.99758
748.84        67.76447
749.26         67.6346
749.68        67.72137
750.09        67.95502
750.51        68.22128
750.93        68.37097
751.35        68.10895
751.76        67.55574
752.18        67.25742
752.60        67.26509
753.01        67.29734
753.43         67.2825
753.85        67.26826
754.27        67.24388
754.68        67.21284
755.10        67.21467
755.52        67.30319
755.93        67.46813
756.35         67.6747
756.77        67.93227
757.18         68.0731
757.60        68.04853
758.02        68.26589
758.43         68.7051
758.85        67.72262
759.26        67.70912
759.68         67.3424
760.10        67.36695
760.51        67.46387
760.93        67.59833
761.34        67.85493
761.76        68.14859
762.18        68.30913
762.59        68.37028
763.01        68.44459
763.42        68.59095
763.84        68.62068
764.26        68.55566
764.67        68.48867
765.09        68.45545
765.50        68.30248
765.92        68.11016
766.33        68.02631
766.75        67.98454
767.16        67.95071
767.58        67.87675
768.00        67.70057
768.41        67.54141
768.83        67.79225
769.24        68.30055
769.66        68.46626
770.07         68.2606
770.49        67.90058
770.90        67.60052
771.32        67.94717
771.73        68.78868
772.15        69.12556
772.56         68.8952
772.97        68.65128
773.39        68.52688
773.80        68.48989
774.22        68.55684
774.63        68.78503
775.05        69.02531
775.46        69.10832
775.88        68.96546
776.29        68.68192
776.70        68.38215
777.12        68.28773
777.53        68.46087
777.95        68.78988
778.36        69.17825
778.77        69.42453
779.19        69.48225
779.60        69.42817
780.02        69.28858
780.43        69.16762
780.84        69.11912
781.26        68.88309
781.67        68.59132
782.09        68.94025
782.50          69.713
782.91         69.7225
783.33        69.02286
783.74        68.75902
784.15        68.97602
784.57        69.00711
784.98        68.86399
785.39         68.8612
785.81        69.00637
786.22        69.23254
786.63        69.48347
787.04        69.63776
787.46        69.69223
787.87        69.71335
788.28        69.74772
788.70        69.75202
789.11        69.70924
789.52        69.79325
789.93        69.93437
790.35        69.72137
790.76        69.27567
791.17        69.23764
791.58        69.59444
792.00        69.70566
792.41        69.54727
792.82        69.63214
793.23        69.88423
793.65        69.65511
794.06        69.14817
794.47        69.25603
794.88        69.79918
795.29        70.29447
795.71        69.76806
796.12        69.51538
796.53        69.39471
796.94          69.395
797.35        69.55139
797.76        69.88805
798.18        70.26516
798.59        70.46973
799.00        70.42863
799.41        70.20304
799.82        69.91924
800.23        69.79398
800.64        69.88131
801.06        70.07936
801.47        70.33687
801.88        70.47537
802.29        70.43382
802.70        70.26544
803.11         70.0257
803.52        69.77585
803.93        69.56802
804.34        69.47398
804.75        69.48328
805.17        69.46362
805.58        69.53828
805.99        69.83286
806.40        70.31239
806.81        71.12105
807.22        71.91486
807.63        71.61003
808.04        70.43568
808.45        69.82457
808.86        69.92682
809.27        69.97749
809.68        69.85288
810.09        69.72559
810.50        69.57461
810.91        69.35893
811.32        69.23325
811.73        69.43631
812.14        69.99458
812.55        70.83319
812.96        71.67757
813.37        72.01466
813.78        71.70822
814.19        70.94255
814.60        70.03062
815.01        69.40195
815.42        69.16373
815.83        69.20193
816.24        69.41812
816.65        69.61727
817.05         69.7205
817.46        69.76862
817.87        69.80518
818.28        69.83612
818.69        69.86934
819.10        69.86864
819.51        69.85908
819.92        69.90897
820.33        70.02601
820.74        70.19275
821.14        70.35369
821.55        70.40604
821.96        70.33312
822.37        70.17204
822.78        69.98298
823.19        69.86791
823.60        69.86113
824.00         69.9561
824.41        70.07626
824.82        70.19967
825.23        70.29587
825.64        70.37109
826.04        70.42202
826.45        70.40316
826.86        70.32727
827.27        70.21568
827.68        70.08028
828.08        69.97024
828.49        69.85735
828.90        69.75369
829.31        69.71938
829.72        69.85001
830.12        70.17313
830.53        70.59669
830.94        70.99152
831.35        71.08802
831.75        70.84241
832.16        70.32278
832.57        69.71549
832.97        69.29974
833.38        69.15961
833.79        69.19069
834.20        69.35737
834.60        69.59493
835.01        69.86221
835.42         70.2315
835.82         70.5793
836.23         70.6065
836.64        70.29807
837.04        69.69586
837.45        69.13607
837.86        69.23486
838.26        70.12718
838.67        71.59568
839.08        73.11852
839.48        73.70927
839.89        73.10743
840.29        71.66575
840.70        70.08766
841.11        69.19971
841.51         69.2198
841.92        69.87846
842.33        70.88996
842.73        71.74375
843.14        72.12312
843.54        72.22511
843.95        72.17301
844.35         72.2169
844.76        72.40081
845.17        72.61714
845.57        72.73864
845.98        72.55437
846.38         72.0648
846.79        71.37575
847.19        70.68466
847.60        70.26462
848.00        70.20128
848.41        70.38026
848.81        70.72109
849.22        70.99791
849.62        71.16677
850.03        71.27352
850.43        71.31045
850.84        71.19902
851.24        70.98924
851.65        70.61756
852.05        70.30994
852.46        70.36001
852.86        70.81476
853.27        71.56324
853.67        72.26158
854.07         72.5472
854.48         72.3315
854.88        71.75813
855.29        70.98955
855.69        70.46675
856.10        70.27511
856.50        70.37473
856.90        70.61664
857.31        70.76836
857.71        70.80204
858.12        70.72385
858.52        70.63135
858.92        70.56312
859.33        70.51579
859.73        70.49762
860.13         70.4216
860.54        70.18411
860.94        69.81934
861.34        69.36729
861.75        68.93422
862.15        68.72547
862.55        68.77182
862.96        68.98409
863.36         69.3205
863.76        69.61639
864.17        69.79134
864.57        69.90652
864.97        69.90699
865.38         69.7263
865.78        69.39864
866.18        68.93186
866.58        68.46381
866.99        68.24432
867.39        68.36776
867.79        68.76917
868.19        69.29778
868.60        69.68678
869.00        69.89138
869.40        69.94338
869.80        69.94363
870.21        70.07994
870.61        70.44442
871.01        70.90063
871.41        71.24241
871.81        71.19453
872.22        70.71822
872.62        69.90504
873.02        69.02347
873.42        68.52677
873.82        68.54279
874.22        68.94229
874.63        69.44357
875.03        69.60828
875.43        69.31161
875.83        68.70081
876.23        68.00712
876.63        67.58131
877.03        67.51885
877.44        67.68259
877.84        67.93871
878.24        68.07809
878.64        67.99437
879.04        67.64006
879.44        67.21606
879.84        67.12192
880.24        67.39359
880.64        67.85534
881.04        68.25814
881.44        68.22817
881.84        67.69676
882.24        66.83089
882.65        65.90943
883.05        65.35085
883.45        65.28026
883.85        65.57288
884.25         66.1142
884.65        66.69572
885.05         67.2038
885.45         67.6777
885.85        68.06015
886.25          68.272
886.65        68.31145
887.05        68.17693
887.45        67.95001
887.85         67.7948
888.25        67.75649
888.65        67.80016
889.04        67.86565
889.44        67.87348
889.84        67.79211
890.24        67.66801
890.64        67.52303
891.04         67.3909
891.44        67.29137
891.84        67.20803
892.24        67.17057
892.64        67.22293
893.04        67.37085
893.44        67.61896
893.83         67.9131
894.23        68.10242
894.63        68.17368
895.03        68.13818
895.43        68.10884
895.83        68.28562
896.23        68.68057
896.63        69.19301
897.02        69.62399
897.42         69.6838
897.82        69.31918
898.22        68.68415
898.62        67.92024
899.01        67.22251
899.41        66.69543
899.81        66.27012
900.21        66.04086
900.61        66.15781
901.00        66.60254
901.40        67.31167
901.80        68.02238
902.20        68.29899
902.59        68.06078
902.99        67.43393
903.39        66.66261
903.79        66.16338
904.18        66.05657
904.58        66.21233
904.98        66.56553
905.38         67.0228
905.77        67.52406
906.17        68.12739
906.57        68.66263
906.96        68.83714
907.36         68.5911
907.76        68.00288
908.15        67.40611
908.55        67.32884
908.95        67.88419
909.34        68.91861
909.74        70.02148
910.14        70.59406
910.53        70.44139
910.93        69.77756
911.33        68.85101
911.72        68.03332
912.12        67.52567
912.52        67.23056
912.91        67.09166
913.31        67.04504
913.70        67.06268
914.10        67.15108
914.49        67.40141
914.89        67.85632
915.29        68.51023
915.68        69.31061
916.08        69.98823
916.47        70.19144
916.87        69.86639
917.26        69.10487
917.66        68.27072
918.05        67.77222
918.45        67.71628
918.84        68.03847
919.24        68.47604
919.64        68.69748
920.03        68.61308
920.42        68.29453
920.82        67.98371
921.21        67.99549
921.61        68.37118
922.00        69.02928
922.40        69.67945
922.79        69.96912
923.19        69.77129
923.58        69.25117
923.98        68.64429
924.37        68.22498
924.77        68.09257
925.16        68.11766
925.55         68.2751
925.95        68.49812
926.34        68.75007
926.74        69.03788
927.13        69.22144
927.52        69.00759
927.92        68.42134
928.31         67.5457
928.70        66.68702
929.10         66.2897
929.49        66.43778
929.89        66.95923
930.28        67.72468
930.67        68.37695
931.07        68.74963
931.46        69.01389
931.85        69.07934
932.24         68.8609
932.64        68.42912
933.03        67.75951
933.42        67.18845
933.82        67.20761
934.21        67.88711
934.60        69.13869
934.99        70.50873
935.39        71.16203
935.78        70.91511
936.17        69.91193
936.56        68.65959
936.96         67.9644
937.35        68.02426
937.74        68.60103
938.13        69.24562
938.53        69.26424
938.92        68.52019
939.31        67.31456
939.70        66.05804
940.09        65.31052
940.49        65.18114
940.88        65.51003
941.27        66.11889
941.66        66.68055
942.05        67.05679
942.44        67.36452
942.84        67.61296
943.23        67.79987
943.62        67.94604
944.01         67.9786
944.40        68.00972
944.79         68.2655
945.18        68.75872
945.57        69.42112
945.97        69.94527
946.36        69.90983
946.75        69.20206
947.14        68.04092
947.53        66.78159
947.92        65.91691
948.31        65.57793
948.70        65.63271
949.09        65.95997
949.48        66.33895
949.87        66.66668
950.26        66.99984
950.65        67.31641
951.04        67.57853
951.43        67.76981
951.82         67.8538
952.21        67.84899
952.60        67.81685
952.99        67.79327
953.38        67.80229
953.77        67.83957
954.16        67.88818
954.55        67.94389
954.94        67.98554
955.33        68.08398
955.72        68.36024
956.11        68.79878
956.50        69.33624
956.89        69.72178
957.28        69.54674
957.66        68.74812
958.05        67.55668
958.44        66.29086
958.83        65.38815
959.22        64.95638
959.61        64.86921
960.00        65.05441
960.39        65.36794
960.78         65.6986
961.16        66.04511
961.55        66.33466
961.94        66.40445
962.33         66.2535
962.72        65.92918
963.11        65.51106
963.49        65.23097
963.88        65.11305
964.27        65.09712
964.66        65.26545
965.04        65.76631
965.43        66.53487
965.82        67.59257
966.21        68.52769
966.60        68.55037
966.98        67.48114
967.37        65.66844
967.76        63.82035
968.15        62.83179
968.53        62.86725
968.92         63.7159
969.31        64.90861
969.69        65.50114
970.08        65.11514
970.47        64.08315
970.86        63.03024
971.24         62.8319
971.63        63.67318
972.02        65.30876
972.40        67.20537
972.79        68.05094
973.17        67.51407
973.56        66.04071
973.95        64.40066
974.33        63.59592
974.72        63.83632
975.11        64.79072
975.49        66.06217
975.88        66.81038
976.26         66.7831
976.65         66.2264
977.04        65.41778
977.42        64.73215
977.81        64.28416
978.19        63.92909
978.58         63.7999
978.96         64.0936
979.35        64.76855
979.74        65.79178
980.12        66.90083
980.51        67.36123
980.89        67.12157
981.28        66.38381
981.66        65.49468
982.05        64.93824
982.43        64.86427
982.82        65.09315
983.20        65.74891
983.59        66.91883
983.97        68.60693
984.35        70.75935
984.74        72.72596
985.12        73.65925
985.51        73.28616
985.89        71.82964
986.28        70.11399
986.66        69.34283
987.04        69.86793
987.43        71.37459
987.81        73.18427
988.20        73.83587
988.58        72.91724
988.96        70.81178
989.35        68.42728
989.73        67.01286
990.12        66.82693
990.50        67.58829
990.88        68.48571
991.27        68.12904
991.65        66.27635
992.03        63.50728
992.42        60.99604
992.80         60.3061
993.18        61.73526
993.56        64.81931
993.95        68.47544
994.33        70.75052
994.71        70.79293
995.10        69.28977
995.48         67.1721
995.86        65.92084
996.24        65.92545
996.63        66.55222
997.01        67.66094
997.39        68.62192
997.77        69.07971
998.15        69.41808
998.54         69.3118
998.92        68.07574
999.30        65.86961
999.68        62.94091
1000.06        60.39853
1000.45        59.83729
1000.83        61.64012
1001.21        65.51099
1001.59        70.34933
1001.97        73.40478
1002.35        73.53685
1002.73        71.53196
1003.12        68.83439
1003.50        67.28575
1003.88        67.43409
1004.26        68.58202
1004.64        70.34785
1005.02        71.91207
1005.40        72.80046
1005.78        73.49768
1006.16        73.56358
1006.54        72.22583
1006.92        69.65617
1007.30        66.16353
1007.69        63.16946
1008.07        62.59907
1008.45        64.97591
1008.83        69.92148
1009.21        76.11058
1009.59         80.0909
1009.97        80.16869
1010.35        77.29698
1010.73          72.867
1011.11        68.97488
1011.49         66.3894
1011.86        64.54937
1012.24        63.54795
1012.62        63.50169
1013.00        64.29771
1013.38        66.04943
1013.76        68.30293
1014.14        69.68944
1014.52        69.56568
1014.90        68.20477
1015.28        66.19374
1015.66        64.46361
1016.04        63.27469
1016.41        62.34211
1016.79        61.76894
1017.17        61.81256
1017.55        62.42043
1017.93        63.53648
1018.31        64.64198
1018.69        64.93183
1019.06        64.27654
1019.44        62.82224
1019.82        60.98192
1020.20         59.8895
1020.58        60.00437
1020.95        60.78828
1021.33        62.01168
1021.71        63.34448
1022.09        64.76285
1022.46        66.72424
1022.84        68.55967
1023.22        68.68948
1023.60        66.71189
1023.97        62.94715
1024.35        59.73354
1024.73        59.78754
