SpectraSmart Spectrum 2.9.0.0
--------- Device Information -----------
Spectrum Name :  反射率_0
Saving Time :  2024/04/26 23:23:01
Spectro-Module Model Name : SE2030-DUVN
Spectro-Module Serial Number : OS361AC55029948
Wavelength Start : 200
Wavelength End : 1025
Wavelength Unit : Wavelength(nm)
Spectrum Unit : Reflectance(%)
-----------Spectrum Setting ------------
Integration Time : 20ms
Average : 10
Boxcar : 0
Background removal :  enabled
linearity correction :  enabled
SC :  disabled
Intensity correction :  disabled
DWT denoise :  enabled
savitzky-golay :  disabled
FFT :  disabled
Running average :  disabled
Kalman :  disabled
High pass :  disabled
---------------BEGIN--------------------
Wavelength(nm)             Reflectance(%)
200.29               0
200.75        48.45414
201.21        46.56035
201.67        44.82635
202.13        43.40235
202.58        42.16795
203.04        41.11218
203.50        40.80747
203.96        42.70043
204.42        47.43569
204.88        54.59965
205.34        61.90606
205.80        65.48386
206.26        64.34065
206.72         59.7718
207.18        54.47899
207.64        50.47325
208.10        47.82976
208.55        46.52735
209.01        45.70151
209.47        44.67019
209.93        43.84716
210.39        43.49606
210.85        45.02135
211.31        50.62416
211.77        62.78741
212.23        89.68819
212.69        153.0784
213.14        244.1503
213.60        213.4814
214.06        128.6501
214.52        78.52406
214.98        58.52814
215.44        52.39547
215.90        51.97507
216.36        55.21379
216.81        60.28549
217.27         66.9108
217.73        78.00089
218.19        91.82056
218.65        95.39162
219.11        85.23867
219.57        70.32072
220.02        59.74118
220.48        57.74884
220.94        63.00573
221.40        75.64577
221.86        95.13188
222.32        108.3506
222.77        103.5872
223.23        89.40789
223.69        75.18092
224.15         66.1117
224.61        61.36275
225.06        58.53644
225.52        56.84526
225.98        55.23217
226.44        53.48942
226.90        51.98633
227.36        50.88849
227.81        50.44107
228.27        50.72395
228.73        51.24032
229.19        51.93664
229.65        52.86535
230.10        53.90164
230.56        55.07148
231.02        55.71143
231.48        54.83292
231.93        52.47967
232.39        49.46228
232.85        46.73569
233.31        45.57114
233.77        46.03395
234.22        47.66845
234.68        49.78666
235.14         51.3963
235.60        52.18262
236.05        52.52586
236.51        52.48071
236.97        52.22698
237.43        51.94919
237.88        51.54817
238.34        51.51168
238.80        53.01229
239.26        56.57982
239.71        62.92094
240.17        71.33688
240.63        79.11338
241.08        84.23472
241.54        85.75358
242.00        85.84975
242.46        90.25883
242.91        103.1705
243.37        126.5083
243.83        161.3643
244.28        192.7536
244.74        196.9992
245.20        173.7366
245.66        141.8799
246.11        118.5993
246.57        105.3694
247.03         97.2385
247.48        92.06068
247.94        87.93507
248.40        84.92373
248.85        83.53419
249.31        83.50809
249.77        83.77355
250.22        83.92109
250.68        83.51437
251.14        82.48466
251.59        81.26242
252.05        80.54715
252.51        80.94171
252.96        80.54174
253.42        77.96127
253.88        73.65903
254.33        68.29441
254.79        65.19286
255.25        66.84477
255.70        72.59613
256.16        81.18685
256.62        88.33781
257.07        87.87364
257.53        81.66705
257.99        73.66075
258.44        67.17574
258.90         65.0741
259.35        65.94814
259.81        68.54591
260.27        70.85361
260.72        70.50404
261.18        67.86197
261.63        63.93284
262.09        60.42301
262.55        58.51347
263.00        58.03703
263.46        58.48688
263.91        58.87496
264.37         58.3136
264.83        56.71188
265.28        54.50221
265.74        52.45592
266.19         51.1891
266.65        50.82941
267.11        50.98341
267.56        51.24453
268.02        50.99831
268.47        50.09185
268.93        48.80927
269.38        47.33624
269.84        46.00172
270.30        44.90154
270.75        43.89888
271.21        43.08112
271.66        42.53066
272.12        42.21597
272.57        42.08463
273.03        41.88076
273.48        41.17286
273.94        39.96566
274.39        38.40024
274.85        36.85224
275.31        35.69889
275.76        34.99607
276.22        34.64873
276.67        34.46529
277.13        34.26371
277.58        33.92822
278.04        33.53958
278.49        33.08779
278.95        32.67452
279.40        32.26144
279.86        31.87577
280.31        31.41373
280.77           30.85
281.22        30.16009
281.68        29.44492
282.13        28.78009
282.59        28.34552
283.04        28.13097
283.50        28.10738
283.95        28.16117
284.41         28.1244
284.86        27.95358
285.32        27.72154
285.77        27.50585
286.22        27.48126
286.68        27.66414
287.13        27.94529
287.59        28.23166
288.04        28.33902
288.50        28.25254
288.95        28.01635
289.41        27.71838
289.86        27.41645
290.32         27.1846
290.77        27.00196
291.22        26.91778
291.68        26.98658
292.13        27.21294
292.59        27.61814
293.04        28.17393
293.50        28.84338
293.95         29.6022
294.40        30.45772
294.86        31.42434
295.31        32.51822
295.77         33.7423
296.22         35.0648
296.68        36.45912
297.13        37.87516
297.58        39.30829
298.04        40.77099
298.49        42.28374
298.95        43.89711
299.40        45.60506
299.85        47.39684
300.31        49.23352
300.76        51.03494
301.21        52.79757
301.67        54.56251
302.12        56.35369
302.58        58.29161
303.03        60.34555
303.48        62.50005
303.94        64.70789
304.39        66.83531
304.84        68.88367
305.30        70.89516
305.75        72.87517
306.20        74.92487
306.66        77.06369
307.11        79.20685
307.57        81.29897
308.02        83.15157
308.47        84.75987
308.93        86.18522
309.38        87.51173
309.83        88.98564
310.29        90.66287
310.74        92.47538
311.19         94.2514
311.65        95.67867
312.10         96.6631
312.55        97.28828
313.00         97.7976
313.46        98.57671
313.91        99.68139
314.36        101.0219
314.82        102.3398
315.27        103.2317
315.72        103.5852
316.18        103.5717
316.63        103.4196
317.08        103.5289
317.53        104.0131
317.99        104.7478
318.44        105.5896
318.89        106.2714
319.35        106.7012
319.80        106.9572
320.25         107.141
320.70        107.4137
321.16        107.8117
321.61        108.3144
322.06        108.7924
322.51        109.0565
322.97        109.0569
323.42        108.8665
323.87        108.6907
324.32        108.8788
324.78        109.4667
325.23        110.4344
325.68        111.4292
326.13        111.8652
326.59        111.6073
327.04        110.8703
327.49        110.0637
327.94        109.8696
328.39        110.4545
328.85        111.5699
329.30        112.9848
329.75        114.0131
330.20        114.4108
330.66        114.3375
331.11        114.0628
331.56        113.9446
332.01        114.1152
332.46        114.4339
332.92        114.7581
333.37         115.036
333.82        115.1737
334.27        115.2818
334.72        115.3935
335.17        115.5227
335.63        115.6885
336.08         115.937
336.53        116.3451
336.98        117.0925
337.43        118.1869
337.88        119.5318
338.34        120.9146
338.79          122.11
339.24        122.9485
339.69        123.4772
340.14        123.7082
340.59        123.6923
341.05        123.5331
341.50        123.2544
341.95        123.0102
342.40        123.0287
342.85        123.3691
343.30        123.9685
343.75        124.7729
344.20        125.6619
344.66        126.5569
345.11        127.4692
345.56        128.2374
346.01        128.6275
346.46         128.633
346.91        128.3301
347.36        127.9845
347.81        128.0358
348.26        128.5563
348.72        129.3835
349.17        130.2787
349.62        130.8945
350.07        131.1216
350.52        131.1061
350.97        130.8383
351.42        130.3092
351.87        129.5961
352.32        128.7123
352.77         127.957
353.22        127.7688
353.67        128.1991
354.13        129.1267
354.58        130.1557
355.03        130.5613
355.48        130.1562
355.93        129.1283
356.38        127.9298
356.83        127.2615
357.28        127.2556
357.73        127.6678
358.18        128.0737
358.63        127.7934
359.08        126.6848
359.53        125.0334
359.98        123.2196
360.43        121.7792
360.88        120.8494
361.33        120.2466
361.78        119.8058
362.23        119.2774
362.68        118.5739
363.13        117.7937
363.58        116.9503
364.03        116.0392
364.48         115.072
364.93        114.0267
365.38         112.966
365.83        112.0232
366.28        111.2341
366.73        110.5732
367.18        109.9752
367.63        109.3189
368.08        108.5706
368.53        107.7719
368.98        106.9514
369.43        106.1526
369.88        105.3925
370.33        104.6475
370.78        103.9302
371.23        103.2762
371.68        102.6845
372.13        102.1386
372.58        101.5993
373.03        100.9954
373.48        100.3038
373.93        99.54508
374.38        98.72521
374.83        97.86663
375.28         96.9913
375.72        96.07674
376.17        95.22938
376.62        94.48915
377.07        93.87542
377.52        93.40617
377.97         93.0005
378.42         92.5369
378.87        91.99257
379.32        91.36222
379.77        90.81784
380.22         90.6156
380.67        90.76042
381.11        91.19861
381.56        91.52077
382.01        91.14301
382.46        90.00012
382.91        88.37005
383.36        86.76408
383.81        85.87968
384.26        85.82921
384.71        86.36547
385.15         87.1697
385.60        87.68211
386.05        87.70532
386.50        87.39271
386.95        86.82652
387.40        86.14481
387.85        85.43748
388.29        84.62267
388.74        83.87918
389.19        83.24365
389.64         82.7237
390.09        82.31247
390.54        81.98364
390.98        81.66089
391.43         81.3642
391.88        81.09454
392.33        80.84616
392.78        80.58253
393.23        80.29492
393.67        80.02676
394.12         79.8392
394.57        79.49376
395.02        79.06744
395.47        78.94262
395.91        79.06799
396.36        78.95845
396.81        78.61459
397.26        78.32352
397.71        78.07256
398.15        77.75047
398.60        77.46032
399.05        77.00905
399.50        76.54369
399.95        76.63384
400.39        77.13831
400.84        77.12046
401.29        76.54928
401.74        76.14466
402.18        75.94137
402.63        75.46464
403.08        74.85989
403.53        74.55138
403.97        74.57127
404.42        74.80192
404.87        75.07189
405.32        75.05495
405.76        74.66764
406.21        74.18487
406.66        73.72756
407.11        73.16935
407.55         72.7402
408.00         73.0694
408.45        73.94604
408.90        74.29279
409.34        73.92979
409.79        73.34591
410.24        72.77197
410.68        72.39977
411.13        72.31438
411.58           72.41
412.03        72.56281
412.47        72.60444
412.92        72.45469
413.37        72.19568
413.81        71.91675
414.26        71.81532
414.71         71.8978
415.15        72.12867
415.60        72.37975
416.05        72.51856
416.49        72.50819
416.94        72.38506
417.39         72.2364
417.83          72.184
418.28        72.25786
418.73        72.39988
419.17        72.56845
419.62        72.70401
420.07        72.77747
420.51        72.79592
420.96        72.76201
421.41        72.64021
421.85        72.42876
422.30        72.15987
422.74        71.85093
423.19        71.79163
423.64        71.89221
424.08        71.77327
424.53         71.5063
424.98        71.54324
425.42         71.9048
425.87         72.4834
426.31        73.03783
426.76         72.8401
427.21        72.03918
427.65        71.70581
428.10        71.89892
428.54        71.92516
428.99        71.82744
429.44        71.82618
429.88        71.98643
430.33        72.50342
430.77        73.09982
431.22        73.44162
431.66        73.38696
432.11        72.67004
432.56        71.59658
433.00         71.4179
433.45         72.3707
433.89        73.19241
434.34        73.00932
434.78        75.12698
435.23        73.30724
435.67        71.61617
436.12        72.08873
436.57        72.23686
437.01        72.79377
437.46        73.31759
437.90        72.95182
438.35        72.30734
438.79        72.53292
439.24         72.4849
439.68        72.52406
440.13          72.797
440.57         73.2685
441.02        73.33368
441.46        73.06695
441.91        73.64291
442.35        74.64075
442.80        74.48257
443.24        73.38962
443.69         73.2657
444.13         74.0729
444.58          74.398
445.02        74.20708
445.47        74.30767
445.91        74.68918
446.36        74.97417
446.80         75.1199
447.24        75.25422
447.69        75.40175
448.13        75.37747
448.58        75.52838
449.02        75.55777
449.47        75.55404
449.91        75.46742
450.36        75.32772
450.80        75.13328
451.25        74.96155
451.69          74.875
452.13        74.90273
452.58         75.0118
453.02        75.15055
453.47        75.24378
453.91        75.25379
454.36        75.20819
454.80        75.10425
455.24        74.87531
455.69        74.53828
456.13        74.24004
456.58         74.0771
457.02        73.53909
457.46        73.21157
457.91        73.43935
458.35        74.05111
458.79        74.06351
459.24        73.50046
459.68        72.71261
460.13        71.97912
460.57        71.77953
461.01        72.29062
461.46        71.99651
461.90        72.84733
462.34        73.56139
462.79        73.33511
463.23        73.49199
463.68        73.53234
464.12        73.26974
464.56        72.70413
465.01        71.88472
465.45           71.04
465.89        70.99652
466.34        71.55224
466.78        71.72114
467.22        71.48454
467.67        71.07104
468.11        71.16976
468.55        71.30904
468.99        71.54894
469.44        71.49956
469.88        71.14819
470.32        70.76297
470.77        70.43812
471.21        70.19962
471.65         70.0727
472.10        70.06521
472.54         70.1208
472.98        70.12334
473.42        70.03453
473.87         70.0006
474.31        69.96577
474.75        69.67036
475.20        69.23003
475.64        69.20923
476.08        69.61407
476.52        69.60601
476.97        69.06961
477.41        69.53575
477.85        69.65149
478.29        68.82029
478.74         69.7012
479.18        69.81499
479.62        69.44392
480.06        69.32083
480.50        69.25443
480.95         69.2923
481.39        69.44273
481.83        68.94982
482.27        68.84879
482.72        69.38915
483.16        69.21423
483.60         68.8819
484.04        69.10728
484.48         69.3526
484.93        69.44682
485.37        69.04455
485.81        68.91716
486.25        68.26902
486.69        70.67191
487.14        71.93894
487.58        69.93839
488.02        69.79982
488.46         68.1313
488.90        68.34025
489.34        69.31873
489.79        70.31665
490.23        69.49041
490.67        68.86168
491.11        68.27616
491.55        68.03811
491.99        68.26884
492.43        68.18605
492.88        67.84864
493.32        67.81181
493.76        68.08269
494.20        68.27457
494.64         68.3392
495.08        68.51196
495.52        68.68952
495.96        68.46835
496.41         67.9748
496.85          67.767
497.29        67.78056
497.73        68.08495
498.17        67.74429
498.61        67.57099
499.05        67.38123
499.49        67.60031
499.93        67.89845
500.37        68.12753
500.82         68.2011
501.26        68.20181
501.70        68.06748
502.14        68.56949
502.58        68.08618
503.02        68.13346
503.46        68.24226
503.90        68.28493
504.34        68.41769
504.78        68.36224
505.22        68.16743
505.66        67.91359
506.10        67.71418
506.54        67.49045
506.98        67.21769
507.42        67.69992
507.86         67.6928
508.30        67.45586
508.74        67.67313
509.18        67.54784
509.62        67.41733
510.06        67.30656
510.50        67.25219
510.94        67.21195
511.38        67.19139
511.82        67.23014
512.26        67.32436
512.70        67.46505
513.14        67.60492
513.58        67.68184
514.02        67.68309
514.46        67.59202
514.90        67.44553
515.34         67.4846
515.78        67.44581
516.22        67.52238
516.66        67.59554
517.10        67.61434
517.54        67.56252
517.98        67.47289
518.42        67.35578
518.86        67.21749
519.30        67.07359
519.74        66.92267
520.18        66.80958
520.62        66.80283
521.06        66.91186
521.50        67.12191
521.93        67.36274
522.37        67.49465
522.81         67.4923
523.25        67.38321
523.69        67.25068
524.13        67.23138
524.57        67.34637
525.01        67.54107
525.45        67.72413
525.89        67.74908
526.32        67.58003
526.76        67.30039
527.20        66.97729
527.64        66.71717
528.08         66.5605
528.52        66.47298
528.96        66.46551
529.40        66.55541
529.83        66.72261
530.27        66.96202
530.71         67.1906
531.15        67.28036
531.59        67.20586
532.03          67.001
532.46         66.7319
532.90        66.55665
533.34        66.50423
533.78        66.49551
534.22        66.49799
534.66         66.5413
535.09         66.5592
535.53        66.41876
535.97        66.15501
536.41        65.99233
536.85        65.95523
537.28        65.92207
537.72        65.90768
538.16        65.98921
538.60         66.1591
539.04        66.38833
539.47        66.60392
539.91        66.73762
540.35        66.75611
540.79        66.68291
541.22        66.55972
541.66         66.4785
542.10         66.4563
542.54        66.47004
542.97        66.48359
543.41        66.47038
543.85        66.41541
544.29        66.34785
544.72         66.2739
545.16        66.23792
545.60        66.23743
546.04        66.26582
546.47        66.33379
546.91        66.45252
547.35        66.60764
547.79        66.78821
548.22        66.95013
548.66        67.01017
549.10        67.02728
549.53        66.99409
549.97        66.93716
550.41         66.7224
550.84         66.4265
551.28        66.32317
551.72        66.40023
552.15        66.29927
552.59        66.50736
553.03        66.17072
553.46        66.58508
553.90        66.60288
554.34        66.55949
554.77        66.49898
555.21        66.43677
555.65        66.44881
556.08        66.51644
556.52        66.57928
556.96        66.60326
557.39        66.71173
557.83        66.84805
558.27        66.65316
558.70        66.20908
559.14        66.05473
559.57        66.17124
560.01        66.17302
560.45        66.08819
560.88        66.18973
561.32        66.45605
561.75        66.73268
562.19        66.93437
562.63        66.72835
563.06        66.24608
563.50        66.18218
563.93        66.44432
564.37        66.47485
564.80         66.2977
565.24        66.14364
565.68        65.88531
566.11        66.60172
566.55        65.90807
566.98        65.73029
567.42        65.53956
567.85        65.80681
568.29        66.44049
568.72        66.82903
569.16         67.0263
569.60        67.22144
570.03        67.36481
570.47        67.60938
570.90        68.05276
571.34         67.0807
571.77        67.74012
572.21        68.10342
572.64        67.95115
573.08        68.13986
573.51        67.21249
573.95        67.28812
574.38        68.07961
574.82        68.07565
575.25        67.78284
575.69        67.65496
576.12         67.9875
576.56        66.96718
576.99        67.49957
577.42        67.39195
577.86        67.84005
578.29         68.6607
578.73        68.67805
579.16        68.46758
579.60        67.79071
580.03        67.35807
580.47        67.23589
580.90        68.48134
581.33        68.33567
581.77        68.37938
582.20        68.43801
582.64        68.97309
583.07        68.43502
583.51        68.09985
583.94        67.75079
584.37        67.66209
584.81        67.94425
585.24        68.08051
585.68        67.95265
586.11        68.17026
586.54        68.36712
586.98        67.26441
587.41        66.80251
587.85        67.50845
588.28        67.51272
588.71        67.42345
589.15        66.98472
589.58        67.24924
590.01        66.70979
590.45        66.61812
590.88        67.69497
591.31        67.54424
591.75         66.6813
592.18        66.18047
592.61        66.32957
593.05        66.84196
593.48        67.72541
593.91        67.88282
594.35        67.55432
594.78        66.87807
595.21         66.1426
595.65        66.81361
596.08         68.1321
596.51        68.00966
596.94        67.07209
597.38        66.63606
597.81        66.99198
598.24        67.48981
598.68        67.32722
599.11        66.90723
599.54        67.96519
599.97        67.48925
600.41        67.29784
600.84        66.75521
601.27        67.23181
601.70        67.05997
602.14        67.29622
602.57        67.03661
603.00        66.84795
603.43        66.08722
603.87        67.22009
604.30        67.59025
604.73        67.40816
605.16        66.38115
605.60        66.65186
606.03        66.43085
606.46         66.3531
606.89        66.39069
607.32         66.9899
607.76        66.61655
608.19        66.91991
608.62        66.82955
609.05        66.64182
609.48        66.50158
609.92        67.29153
610.35        66.72556
610.78          66.619
611.21        66.56715
611.64        66.60548
612.07        66.77313
612.50        66.61311
612.94        66.55005
613.37         66.4166
613.80        66.60209
614.23        65.96157
614.66        65.94402
615.09        66.21896
615.52        66.42329
615.96        66.43094
616.39        66.57749
616.82        66.93311
617.25        66.06366
617.68        66.25986
618.11        66.25211
618.54        66.62456
618.97        66.62189
619.40        66.24844
619.84        66.30966
620.27        66.17889
620.70        66.23271
621.13        66.21355
621.56        65.75764
621.99        64.96839
622.42        64.93766
622.85        65.30441
623.28        65.24818
623.71         64.9475
624.14        65.45001
624.57        65.90401
625.00         65.2831
625.43         65.8083
625.86        65.71879
626.29        65.84911
626.72        65.17512
627.15        65.67035
627.58        65.58454
628.01        65.33644
628.44        65.61211
628.87        65.37302
629.30        64.78192
629.73        64.95438
630.16        65.18454
630.59        65.09566
631.02        65.26486
631.45        65.44121
631.88         65.5871
632.31        65.65739
632.74        65.64951
633.17        65.57656
633.60        65.47426
634.03        65.36154
634.46        65.22247
634.89        65.07291
635.32        64.95753
635.75         64.8904
636.18        64.79745
636.61        64.70332
637.04        64.68268
637.47        64.73666
637.89        64.83624
638.32        64.91577
638.75         64.9323
639.18        64.87083
639.61        64.74303
640.04        64.60217
640.47        64.53381
640.90        64.55903
641.33        64.66055
641.76        64.78331
642.18        64.83848
642.61        64.79078
643.04        64.66708
643.47        64.53872
643.90        64.51579
644.33        64.61861
644.76        64.81246
645.18        65.00922
645.61        65.04867
646.04        64.90767
646.47        64.64492
646.90        64.36698
647.33        64.22886
647.75        64.24441
648.18        64.43107
648.61        64.73869
649.04        64.81087
649.47        64.54823
649.89         65.0867
650.32        64.70866
650.75        64.54265
651.18        64.19818
651.61        64.30743
652.03        64.80028
652.46        64.86691
652.89        64.51307
653.32         64.6387
653.74         64.7937
654.17        64.64989
654.60        64.93027
655.03        64.72686
655.46        64.22897
655.88        64.21947
656.31        67.26019
656.74        71.01503
657.16         71.7555
657.59        71.79082
658.02        67.10275
658.45        66.20624
658.87         65.3364
659.30        64.87967
659.73        65.05391
660.15        65.76035
660.58        64.54225
661.01        64.51284
661.44        64.81375
661.86         64.7269
662.29         64.1919
662.72        64.41473
663.14        64.21097
663.57        64.27387
664.00        64.28691
664.42        64.44703
664.85        64.74427
665.27        65.09497
665.70        65.37111
666.13        65.45773
666.55        65.33114
666.98        64.95328
667.41        64.42329
667.83        64.32893
668.26        64.05591
668.69        64.10004
669.11        64.22141
669.54        64.35094
669.96        64.45966
670.39        64.56337
670.82        64.67262
671.24        64.77129
671.67         64.8513
672.09        64.89194
672.52        64.90311
672.94        64.86669
673.37         64.7932
673.80        64.68488
674.22        64.58008
674.65        64.50513
675.07        64.48895
675.50        64.51532
675.92        64.56057
676.35        64.56953
676.77        64.53312
677.20        64.46564
677.62         64.4015
678.05        64.39629
678.47        64.45493
678.90        64.55602
679.32        64.66036
679.75        64.71594
680.17        64.70434
680.60        64.66525
681.02         64.6127
681.45        64.53211
681.87           64.47
682.30        64.47147
682.72        64.54385
683.15         64.6564
683.57         64.7738
684.00        64.75145
684.42          64.648
684.85        64.70524
685.27        64.92526
685.70        65.17642
686.12        65.36839
686.54        65.45078
686.97        65.40364
687.39        65.21215
687.82        64.92458
688.24        64.82417
688.66        64.75507
689.09        64.62396
689.51        64.63072
689.94        64.65645
690.36        64.76937
690.78        64.90492
691.21        65.05059
691.63        65.18648
692.06        65.29959
692.48         65.4018
692.90        65.45435
693.33        65.40774
693.75        65.26099
694.17        65.00137
694.60        64.74863
695.02        64.70621
695.44        64.87981
695.87        65.21944
696.29        65.57405
696.71        65.49605
697.14         65.0566
697.56        64.81851
697.98        64.85963
698.41        64.88251
698.83        64.84062
699.25        65.04439
699.68        65.34718
700.10        65.44843
700.52         65.2794
700.94        64.94557
701.37        64.59772
701.79        64.48035
702.21        64.64308
702.64        64.99215
703.06        65.39413
703.48        65.61655
703.90        65.59454
704.33        65.40222
704.75        65.14022
705.17        64.95995
705.59        64.91693
706.01        64.96487
706.44        65.06792
706.86        65.18858
707.28        65.28867
707.70        65.39225
708.12        65.52001
708.55        65.64571
708.97        65.73377
709.39        65.97969
709.81        65.86359
710.23        65.87132
710.66        65.85295
711.08         65.7965
711.50        65.68744
711.92        65.55502
712.34        65.41936
712.76        65.28193
713.19        65.17609
713.61        65.19084
714.03        65.32308
714.45        65.54925
714.87        65.82135
715.29         66.0677
715.71        66.25589
716.13        66.38097
716.56        66.43154
716.98        66.48788
717.40        66.52757
717.82         66.5423
718.24        66.48846
718.66        66.29725
719.08        65.98284
719.50        65.60052
719.92        65.25772
720.34        65.10898
720.76        65.18391
721.19        65.41032
721.61        65.73923
722.03        66.03584
722.45         66.2383
722.87        66.36958
723.29        66.40378
723.71        66.30601
724.13        66.09351
724.55        65.78991
724.97        65.48279
725.39        65.31325
725.81        65.31999
726.23        65.46883
726.65        65.71634
727.07        65.99188
727.49        66.24019
727.91        66.48142
728.33        66.68453
728.75        66.80898
729.17        66.84457
729.59        66.79266
730.01        66.67752
730.43        66.55126
730.85        66.43571
731.27         66.3248
731.69        66.23437
732.10        66.17988
732.52        66.16354
732.94        66.20477
733.36        66.29239
733.78        66.27442
734.20        66.12151
734.62        66.09854
735.04         66.3366
735.46        65.81202
735.88        66.49616
736.30        66.77484
736.72        67.13081
737.13        67.36166
737.55         67.3804
737.97        67.29418
738.39        67.12872
738.81        66.85925
739.23        66.58083
739.65        66.57777
740.06        66.78854
740.48        66.92706
740.90         66.9427
741.32        67.01398
741.74        67.13882
742.16        67.21884
742.57        67.24867
742.99        67.23632
743.41        67.18184
743.83        67.07291
744.25        66.91627
744.67        66.70692
745.08        66.52399
745.50        66.46886
745.92        66.56578
746.34        66.78304
746.75        67.00509
747.17         67.0294
747.59        66.83085
748.01        66.47896
748.42         66.1085
748.84         65.9705
749.26        66.12339
749.68        66.37704
750.09        66.64494
750.51        67.03546
750.93        67.37546
751.35        67.17959
751.76        66.57114
752.18        66.22131
752.60        66.19344
753.01        66.15287
753.43        66.05807
753.85        66.02022
754.27        66.04008
754.68        66.11633
755.10        66.23396
755.52        66.35696
755.93        66.45557
756.35        66.50748
756.77        66.58766
757.18        66.69418
757.60        66.82226
758.02        67.25006
758.43        67.79827
758.85        67.21774
759.26        66.85699
759.68         66.3352
760.10        66.29153
760.51        66.66144
760.93         67.3714
761.34         66.9259
761.76        67.01632
762.18        66.87882
762.59        67.05769
763.01         67.0445
763.42        66.91069
763.84        66.87997
764.26        66.97938
764.67        67.04939
765.09        67.10023
765.50        67.18237
765.92        67.25961
766.33        67.08777
766.75        66.67552
767.16        66.41293
767.58        66.36047
768.00        66.42079
768.41        66.57584
768.83        66.87035
769.24        67.15759
769.66        67.09766
770.07        66.78119
770.49        66.58143
770.90        66.63483
771.32         67.1116
771.73        67.82111
772.15        68.09608
772.56        67.88555
772.97        67.47139
773.39        67.00996
773.80        66.78953
774.22        66.89529
774.63         66.7327
775.05          67.192
775.46        67.27972
775.88        67.22363
776.29        67.07681
776.70        66.92938
777.12        66.92181
777.53        67.08385
777.95        67.32995
778.36         67.5837
778.77        67.68734
779.19        67.62624
779.60        67.48151
780.02        67.28661
780.43        67.17876
780.84        67.21546
781.26        67.04883
781.67        66.82847
782.09        67.45405
782.50        68.61053
782.91        68.70309
783.33        67.79875
783.74        67.42789
784.15        67.66198
784.57        67.59349
784.98        67.28693
785.39        67.26241
785.81         67.5423
786.22        67.99143
786.63        68.44739
787.04        68.64553
787.46        68.54374
787.87        68.21043
788.28        67.83083
788.70        67.66522
789.11        67.74945
789.52        68.02891
789.93        68.35967
790.35        68.49408
790.76         68.3813
791.17        68.09741
791.58        67.78201
792.00        67.59168
792.41        67.58551
792.82        67.83859
793.23        68.18419
793.65        68.15458
794.06        67.83801
794.47        67.99162
794.88        68.49916
795.29        68.60899
795.71         68.2674
796.12        67.90939
796.53        67.67671
796.94        67.64458
797.35        67.86584
797.76        68.31583
798.18        68.81662
798.59        69.11935
799.00          69.127
799.41        68.91252
799.82        68.58215
800.23        68.32323
800.64        68.19717
801.06        68.11628
801.47        68.10366
801.88        68.10735
802.29        68.10514
802.70        68.13153
803.11         68.1687
803.52        68.12207
803.93        67.98666
804.34        67.87707
804.75        67.88658
805.17        67.69852
805.58        68.17855
805.99        68.46307
806.40        68.73162
806.81        69.21107
807.22        69.69415
807.63        69.41167
808.04        68.53445
808.45        68.06551
808.86        68.11825
809.27        68.19473
809.68          68.206
810.09        68.22626
810.50        68.22686
810.91         68.1966
811.32        68.21207
811.73        68.39081
812.14        68.74147
812.55        69.20889
812.96        69.65903
813.37        69.84673
813.78        69.70307
814.19        69.32545
814.60        68.83198
815.01        68.37709
815.42        68.00777
815.83        67.67764
816.24        67.42979
816.65        67.34437
817.05        67.44752
817.46        67.71677
817.87        68.04312
818.28        68.19817
818.69         68.1354
819.10        67.88284
819.51        67.63268
819.92        67.73987
820.33        68.26933
820.74        69.08848
821.14        69.90433
821.55        70.25168
821.96        70.02859
822.37        69.38631
822.78         68.5823
823.19        68.05524
823.60        67.95572
824.00        68.18714
824.41        68.57299
824.82        68.90794
825.23        69.09018
825.64        69.18819
826.04        69.22972
826.45        69.20982
826.86        69.15769
827.27         69.0648
827.68        68.93151
828.08        68.80619
828.49         68.6583
828.90        68.50168
829.31        68.41458
829.72        68.51414
830.12        68.83387
830.53        69.28881
830.94        69.70809
831.35        69.75131
831.75        69.36497
832.16        68.63615
832.57         67.8461
832.97        67.42232
833.38        67.47305
833.79        67.85007
834.20        68.38316
834.60        68.79784
835.01        69.00528
835.42        69.12826
835.82        69.18565
836.23        69.12865
836.64         69.0054
837.04        68.78132
837.45        68.62434
837.86        68.88299
838.26        69.62317
838.67        70.70441
839.08        71.76246
839.48        72.09364
839.89        71.52483
840.29        70.31555
840.70         69.0181
841.11        68.25275
841.51        68.18629
841.92        68.60802
842.33        69.33117
842.73        70.01813
843.14        70.41837
843.54        70.68971
843.95        70.84227
844.35        70.94816
844.76        71.01627
845.17         70.9882
845.57        70.89568
845.98        70.78762
846.38        70.69872
846.79        70.62486
847.19        70.54022
847.60        70.36603
848.00        70.10699
848.41        69.77451
848.81        69.45985
849.22         69.2273
849.62        69.14677
850.03        69.19243
850.43        69.33063
850.84        69.43513
851.24        69.51616
851.65        69.53326
852.05        69.63496
852.46        69.96035
852.86        70.50534
853.27        71.17931
853.67        71.71714
854.07        71.88589
854.48        71.63008
854.88        71.06164
855.29        70.31646
855.69        69.78266
856.10        69.53329
856.50        69.56006
856.90        69.73194
857.31        69.83762
857.71        69.85416
858.12        69.76839
858.52        69.68383
858.92        69.65329
859.33         69.6711
859.73        69.75127
860.13        69.75507
860.54        69.48956
860.94        68.98296
861.34        68.30663
861.75         67.6745
862.15        67.47109
862.55        67.75809
862.96        68.37443
863.36        69.15886
863.76        69.74174
864.17        69.96863
864.57        69.96201
864.97        69.70241
865.38        69.18057
865.78        68.47419
866.18        67.58301
866.58        66.72602
866.99         66.3013
867.39        66.43813
867.79        67.03661
868.19        67.84303
868.60        68.42519
869.00        68.68526
869.40        68.68426
869.80        68.55428
870.21        68.55492
870.61         68.8195
871.01        69.20634
871.41        69.49697
871.81        69.39972
872.22        68.87455
872.62        68.01495
873.02        67.14902
873.42        66.82069
873.82         67.1588
874.22         67.9978
874.63        68.90839
875.03        69.22248
875.43        68.77797
875.83        67.79692
876.23        66.69219
876.63        66.10001
877.03        66.18239
877.44         66.7149
877.84        67.42147
878.24        67.84475
878.64        67.79306
879.04        67.29492
879.44        66.64223
879.84         66.3645
880.24         66.5451
880.64        66.97997
881.04        67.37334
881.44        67.28728
881.84        66.63593
882.24        65.59406
882.65        64.53872
883.05        64.03393
883.45        64.21702
883.85        64.92496
884.25        65.83267
884.65         66.3833
885.05        66.41354
885.45        66.09386
885.85         65.6772
886.25        65.55415
886.65        65.81528
887.05        66.30355
887.45        66.84496
887.85        67.16668
888.25        67.17667
888.65        66.97924
889.04        66.65051
889.44        66.32559
889.84        66.04823
890.24        65.78072
890.64        65.54848
891.04        65.40318
891.44        65.35311
891.84        65.40297
892.24        65.49974
892.64        65.54388
893.04        65.52313
893.44        65.47647
893.83        65.47121
894.23         65.5681
894.63        65.80048
895.03        66.11301
895.43        66.48236
895.83        66.88316
896.23        67.26403
896.63        67.59157
897.02        67.77056
897.42         67.6806
897.82        67.31831
898.22        66.78115
898.62        66.15021
899.01        65.53343
899.41        65.01119
899.81        64.55156
900.21        64.28144
900.61        64.39497
901.00        64.88896
901.40        65.68468
901.80        66.49731
902.20         66.8611
902.59        66.68523
902.99        66.09955
903.39        65.36823
903.79        64.94279
904.18         64.9387
904.58        65.19892
904.98        65.61797
905.38        66.04179
905.77        66.40492
906.17        66.80329
906.57        67.08902
906.96        67.00957
907.36        66.53282
907.76        65.72321
908.15        64.97487
908.55        64.90593
908.95        65.63528
909.34        66.99521
909.74        68.43311
910.14        69.10262
910.53        68.76042
910.93        67.69295
911.33        66.34839
911.72        65.41814
912.12        65.15776
912.52        65.34963
912.91          65.751
913.31        66.01652
913.70        66.04683
914.10        65.94001
914.49        65.88679
914.89        66.10043
915.29        66.64281
915.68        67.40891
916.08        68.10542
916.47        68.34393
916.87        68.04526
917.26        67.31323
917.66        66.50352
918.05        66.00507
918.45        65.91949
918.84        66.18909
919.24         66.5322
919.64         66.5906
920.03        66.29113
920.42        65.73299
920.82        65.23492
921.21        65.22665
921.61        65.76724
922.00        66.72826
922.40        67.74603
922.79        68.32376
923.19        68.26783
923.58        67.77273
923.98        67.07896
924.37        66.47345
924.77        66.08309
925.16        65.79163
925.55        65.63536
925.95        65.66238
926.34        65.86895
926.74         66.2262
927.13        66.57474
927.52        66.57735
927.92        66.22082
928.31        65.59525
928.70        64.91484
929.10        64.48817
929.49        64.38586
929.89        64.46705
930.28        64.75831
930.67        65.18779
931.07        65.66936
931.46        66.30239
931.85        66.82529
932.24        66.85413
932.64        66.38333
933.03        65.48965
933.42        64.64672
933.82        64.55486
934.21         65.3373
934.60        66.82626
934.99        68.49959
935.39        69.40486
935.78        69.29859
936.17        68.36039
936.56        67.09739
936.96        66.31264
937.35         66.2226
937.74        66.59811
938.13        67.03233
938.53        66.90691
938.92        66.10815
939.31         64.9165
939.70          63.736
940.09        63.10986
940.49         63.1346
940.88        63.65969
941.27        64.45067
941.66        65.07835
942.05        65.38501
942.44        65.51003
942.84        65.56583
943.23        65.72328
943.62        66.03337
944.01        66.36073
944.40        66.70866
944.79         67.1232
945.18        67.56332
945.57         68.0205
945.97        68.24283
946.36        67.90775
946.75        66.96423
947.14        65.62162
947.53        64.26173
947.92        63.40944
948.31        63.19671
948.70        63.49175
949.09        64.13488
949.48        64.82948
949.87        65.42993
950.26        65.97377
950.65        66.44834
951.04        66.84994
951.43        67.15787
951.82        67.31845
952.21        67.28292
952.60        67.01103
952.99        66.55128
953.38         65.9983
953.77        65.47853
954.16        65.17371
954.55        65.11735
954.94        65.21107
955.33        65.46843
955.72        65.88765
956.11        66.41391
956.50        67.07983
956.89        67.52583
957.28          67.167
957.66        65.95096
958.05        64.12289
958.44         62.3904
958.83        61.78148
959.22        62.45544
959.61        64.11773
960.00        66.06654
960.39        66.97449
960.78        66.43523
961.16        64.87837
961.55        63.00486
961.94        61.73329
962.33        61.32198
962.72        61.52827
963.11        62.09513
963.49        62.57564
963.88        62.70761
964.27        62.64227
964.66         62.6343
965.04        63.06847
965.43        63.96603
965.82        65.24549
966.21        66.40813
966.60        66.55003
966.98        65.45166
967.37         63.5077
967.76        61.57528
968.15        60.73464
968.53        61.17667
968.92        62.66235
969.31        64.49955
969.69        65.29519
970.08        64.54924
970.47        62.74233
970.86        60.87324
971.24        60.33724
971.63        61.42076
972.02        63.75381
972.40        66.50197
972.79        67.73141
973.17        66.90291
973.56        64.68923
973.95        62.20734
974.33        60.90605
974.72          61.088
975.11        62.28864
975.49        63.94577
975.88        64.91734
976.26        64.84122
976.65        64.07847
977.04        63.04517
977.42        62.32117
977.81        62.06582
978.19        62.03371
978.58        62.26429
978.96        62.81849
979.35        63.60915
979.74        64.66174
980.12        65.70638
980.51        66.00205
980.89         65.5201
981.28        64.45327
981.66        63.27241
982.05        62.63552
982.43         62.7176
982.82        63.32821
983.20        64.38511
983.59        65.59162
983.97        66.83907
984.35        68.14788
984.74        69.22463
985.12        69.83054
985.51        69.84248
985.89        69.32294
986.28        68.61626
986.66         68.2045
987.04        68.27512
987.43        68.67269
987.81        69.23234
988.20        69.48322
988.58        69.29593
988.96         68.7478
989.35        68.01704
989.73        67.32055
990.12        66.72186
990.50        66.23534
990.88        65.69873
991.27        64.89245
991.65        63.85236
992.03         62.6862
992.42        61.86179
992.80        61.98157
993.18        63.13409
993.56        65.16975
993.95        67.34189
994.33        68.39793
994.71        67.82708
995.10         66.1005
995.48        64.06023
995.86        63.04747
996.24        63.37259
996.63         64.5321
997.01        66.20578
997.39        67.34152
997.77        67.49029
998.15        67.13722
998.54        66.33662
998.92        65.02047
999.30        63.40812
999.68        61.46146
1000.06        59.98357
1000.45        60.13789
1000.83        62.18299
1001.21        65.99823
1001.59         70.4026
1001.97        72.53627
1002.35        71.41297
1002.73        67.96085
1003.12        64.12473
1003.50        62.38882
1003.88        63.38635
1004.26        66.30897
1004.64         70.3376
1005.02        73.62225
1005.40         75.1729
1005.78        75.62719
1006.16        74.86353
1006.54        72.69606
1006.92         69.5243
1007.30        65.54547
1007.69        62.04113
1008.07        60.69895
1008.45        61.99358
1008.83        65.63599
1009.21        70.66722
1009.59        74.42679
1009.97        75.43758
1010.35        74.24471
1010.73        71.57369
1011.11        68.62293
1011.49         66.0219
1011.86        63.63203
1012.24        61.71457
1012.62        60.54647
1013.00        60.14674
1013.38        60.52576
1013.76        61.80867
1014.14        63.93013
1014.52        66.53309
1014.90        69.27103
1015.28        71.44692
1015.66        72.38057
1016.04        72.00003
1016.41        70.42666
1016.79        68.06161
1017.17        65.86224
1017.55        64.30589
1017.93        63.35627
1018.31        62.82275
1018.69        62.28344
1019.06        61.63062
1019.44        60.99695
1019.82        60.73143
1020.20        61.45589
1020.58        63.15278
1020.95        65.22627
1021.33        67.10827
1021.71        68.18736
1022.09        68.47587
1022.46        68.32424
1022.84        67.66005
1023.22        66.62401
1023.60        65.49342
1023.97        64.08653
1024.35        63.44231
1024.73        64.63305
