SpectraSmart Spectrum 2.9.0.0
--------- Device Information -----------
Spectrum Name :  反射率_0
Saving Time :  2024/04/26 23:22:50
Spectro-Module Model Name : SE2030-DUVN
Spectro-Module Serial Number : OS361AC55029948
Wavelength Start : 200
Wavelength End : 1025
Wavelength Unit : Wavelength(nm)
Spectrum Unit : Reflectance(%)
-----------Spectrum Setting ------------
Integration Time : 20ms
Average : 10
Boxcar : 0
Background removal :  enabled
linearity correction :  enabled
SC :  disabled
Intensity correction :  disabled
DWT denoise :  enabled
savitzky-golay :  disabled
FFT :  disabled
Running average :  disabled
Kalman :  disabled
High pass :  disabled
---------------BEGIN--------------------
Wavelength(nm)             Reflectance(%)
200.29               0
200.75        65.39816
201.21        58.42017
201.67        52.77045
202.13        50.58678
202.58        51.79157
203.04        56.51084
203.50        63.99393
203.96        70.25116
204.42        72.23622
204.88        69.91432
205.34         65.5196
205.80        64.33878
206.26        67.30008
206.72        71.60605
207.18        74.86765
207.64        75.12726
208.10        72.15115
208.55        66.65557
209.01        57.66354
209.47        49.28314
209.93        46.69845
210.39        48.37371
210.85        51.65137
211.31        55.59511
211.77        61.48027
212.23         73.6408
212.69        104.5713
213.14        163.9203
213.60        174.2409
214.06        141.6322
214.52        115.7309
214.98        102.4828
215.44        95.00785
215.90        88.41364
216.36        82.84579
216.81        79.28364
217.27        78.20872
217.73        81.00054
218.19        86.08958
218.65        85.56694
219.11        78.55174
219.57        70.45419
220.02         66.5871
220.48         70.6034
220.94        82.40155
221.40        103.4601
221.86        132.8627
222.32        150.6859
222.77        140.4053
223.23         116.217
223.69          92.355
224.15        76.26639
224.61        66.83084
225.06        60.65115
225.52        57.47585
225.98        56.94981
226.44        58.39517
226.90        61.67327
227.36        65.20358
227.81        66.15332
228.27        64.26305
228.73        60.50425
229.19        56.86456
229.65        55.66468
230.10        57.00116
230.56        60.06956
231.02        63.37059
231.48          64.558
231.93        63.18245
232.39        60.51052
232.85        57.84475
233.31        56.88349
233.77        57.78937
234.22        59.91656
234.68        62.37219
235.14        63.88295
235.60        64.06133
236.05        63.37756
236.51        62.15963
236.97        61.19913
237.43        60.92908
237.88        61.17299
238.34        61.96333
238.80         63.6779
239.26        66.55379
239.71        71.34534
240.17        77.61824
240.63        83.91669
241.08        89.09756
241.54        92.11527
242.00        94.57913
242.46        100.8627
242.91        114.6918
243.37        138.4422
243.83        173.2168
244.28         204.375
244.74        208.6349
245.20        184.6724
245.66        153.6351
246.11        135.4692
246.57        131.1686
247.03        135.0078
247.48         139.351
247.94        132.7841
248.40        117.9596
248.85        102.7215
249.31        91.89542
249.77        86.95042
250.22        86.73035
250.68        89.73941
251.14        95.33907
251.59        100.5229
252.05        102.6926
252.51        103.0197
252.96        100.9229
253.42        96.73194
253.88          91.266
254.33        84.83902
254.79        80.34581
255.25        79.71168
255.70        82.29086
256.16         86.9866
256.62        91.11517
257.07        90.73362
257.53        87.05524
257.99        82.43993
258.44        78.29649
258.90        76.28064
259.35        75.46653
259.81        75.46384
260.27        75.59676
260.72        75.22873
261.18         74.5327
261.63        73.39486
262.09        72.33289
262.55        71.28119
263.00         70.1365
263.46        69.08769
263.91        67.81466
264.37        66.34039
264.83        64.67546
265.28        62.86696
265.74        61.33552
266.19        60.22432
266.65        59.60535
267.11        59.27575
267.56        59.01709
268.02        58.50243
268.47        57.63942
268.93        56.56518
269.38        55.35095
269.84        54.18174
270.30        53.09717
270.75        52.03322
271.21        51.04815
271.66        50.15495
272.12        49.35759
272.57        48.63734
273.03        47.92463
273.48        47.08247
273.94        46.15269
274.39        45.13551
274.85        44.19714
275.31        43.40976
275.76        42.74984
276.22        42.21765
276.67        41.69611
277.13        41.13605
277.58        40.46148
278.04        39.73705
278.49        38.93839
278.95        38.16791
279.40        37.39657
279.86        36.68665
280.31        35.97621
280.77        35.30075
281.22         34.6222
281.68        34.01313
282.13        33.46576
282.59        33.06542
283.04        32.77494
283.50        32.59026
283.95        32.45264
284.41        32.29231
284.86        32.09071
285.32         31.9003
285.77        31.73147
286.22        31.67297
286.68        31.72824
287.13         31.8087
287.59        31.90862
288.04        31.96807
288.50        31.98995
288.95        31.97152
289.41        31.87974
289.86        31.58711
290.32        31.15266
290.77        30.62347
291.22        30.19666
291.68        30.14326
292.13        30.50517
292.59        31.22833
293.04        32.15432
293.50        33.04491
293.95        33.81846
294.40        34.54299
294.86        35.32456
295.31        36.31863
295.77        37.57141
296.22        39.01197
296.68        40.54708
297.13         42.0252
297.58        43.42247
298.04        44.78482
298.49        46.21946
298.95        47.90895
299.40        49.86251
299.85        52.01791
300.31         54.2115
300.76        56.17166
301.21        57.86429
301.67         59.4003
302.12        60.92673
302.58        62.76099
303.03        64.90599
303.48        67.26892
303.94        69.71456
304.39        71.97299
304.84        74.01315
305.30        75.93427
305.75        77.76228
306.20        79.63145
306.66         81.5884
307.11        83.53777
307.57        85.47204
308.02        87.27097
308.47        88.93714
308.93        90.51286
309.38        92.01149
309.83        93.57368
310.29         95.2281
310.74        96.92657
311.19         98.5551
311.65        99.89893
312.10        100.8878
312.55        101.5803
313.00        102.1553
313.46        102.9006
313.91        103.8584
314.36        104.9789
314.82         106.091
315.27        106.9318
315.72        107.4167
316.18        107.6635
316.63        107.8042
317.08         108.096
317.53        108.6107
317.99        109.2585
318.44         109.952
318.89        110.5181
319.35        110.8961
319.80        111.1422
320.25        111.3186
320.70        111.5236
321.16        111.7877
321.61        112.1263
322.06        112.4714
322.51        112.7282
322.97        112.8625
323.42        112.9038
323.87         112.997
324.32        113.3977
324.78        114.1053
325.23        115.1281
325.68         116.106
326.13        116.4512
326.59        116.0422
327.04         115.091
327.49        114.0728
327.94        113.7735
328.39        114.3795
328.85        115.6294
329.30        117.2076
329.75        118.2546
330.20        118.4871
330.66        118.1208
331.11        117.5528
331.56        117.3439
332.01        117.6775
332.46        118.3471
332.92        119.1032
333.37        119.7138
333.82        120.0099
334.27         120.143
334.72        120.1935
335.17        120.2564
335.63        120.3873
336.08        120.6191
336.53        121.0083
336.98        121.7091
337.43        122.7267
337.88        123.9738
338.34        125.3032
338.79        126.5938
339.24        127.6825
339.69         128.579
340.14        129.1473
340.59        129.2055
341.05        128.8134
341.50        128.0686
341.95        127.3075
342.40        127.0359
342.85        127.3864
343.30        128.2337
343.75        129.3743
344.20        130.4386
344.66        131.2802
345.11        131.9727
345.56        132.5188
346.01        132.9427
346.46        133.2732
346.91        133.4837
347.36        133.6167
347.81        133.7736
348.26        133.9724
348.72        134.1862
349.17        134.4077
349.62        134.6515
350.07        134.9055
350.52        135.1964
350.97        135.3743
351.42        135.2004
351.87        134.6609
352.32        133.8315
352.77        133.0346
353.22        132.7398
353.67        133.0197
354.13        133.7352
354.58        134.5112
355.03        134.6743
355.48        134.0632
355.93        132.8731
356.38        131.5673
356.83        130.8461
357.28        130.8362
357.73        131.2952
358.18         131.768
358.63         131.524
359.08        130.4049
359.53        128.6957
359.98        126.8117
360.43        125.3484
360.88        124.4498
361.33        123.9136
361.78        123.5223
362.23        122.9408
362.68        122.0772
363.13        121.0786
363.58        120.0271
364.03         119.022
364.48         118.099
364.93        117.1895
365.38        116.3332
365.83        115.6241
366.28        115.0631
366.73        114.6279
367.18        114.1833
367.63        113.5029
368.08        112.5468
368.53        111.3912
368.98        110.1817
369.43        109.1527
369.88        108.3703
370.33        107.7656
370.78        107.2563
371.23        106.7092
371.68        106.0736
372.13        105.3846
372.58          104.67
373.03        103.9681
373.48        103.2808
373.93        102.5772
374.38        101.8209
374.83        100.9725
375.28        100.0389
375.72         99.0377
376.17        98.08139
376.62        97.20678
377.07        96.45006
377.52        95.83098
377.97        95.33169
378.42        94.93673
378.87        94.62768
379.32        94.33358
379.77        94.12011
380.22        94.12498
380.67        94.32186
381.11        94.55637
381.56        94.69885
382.01         94.0588
382.46        92.69116
382.91        90.85766
383.36         89.0804
383.81        88.05876
384.26        87.89928
384.71        88.36645
385.15        89.13572
385.60         89.6279
386.05        89.64088
386.50        89.32994
386.95        88.77369
387.40        88.10959
387.85        87.42364
388.29        86.62274
388.74          85.897
389.19        85.29578
389.64         84.8277
390.09         84.4877
390.54        84.21886
390.98        83.89158
391.43        83.52225
391.88        83.13468
392.33        82.78331
392.78        82.49819
393.23        82.27249
393.67         82.1712
394.12        82.19273
394.57         81.8681
395.02        81.32289
395.47        81.28024
395.91        81.63805
396.36        81.55314
396.81        81.00973
397.26        80.47977
397.71          80.059
398.15        79.71729
398.60        79.57648
399.05        79.41258
399.50        79.21763
399.95        79.37486
400.39        79.72462
400.84        79.25941
401.29         78.1226
401.74        77.65807
402.18        77.85147
402.63        77.21904
403.08        76.36734
403.53        75.93856
403.97        76.10678
404.42        76.38573
404.87        76.60232
405.32        76.62079
405.76        76.36919
406.21        75.99071
406.66         75.6024
407.11        75.30833
407.55         75.2578
408.00        75.52391
408.45        75.99293
408.90        76.46969
409.34        76.67442
409.79        76.09889
410.24        75.03218
410.68        74.43951
411.13        74.42718
411.58        74.49516
412.03        74.48726
412.47        74.36671
412.92        74.07065
413.37         73.6722
413.81        73.30795
414.26        73.23865
414.71        73.47419
415.15        73.95112
415.60        74.50658
416.05        74.93794
416.49        75.15921
416.94        75.20946
417.39        75.13542
417.83        74.99895
418.28        74.84611
418.73        74.66668
419.17        74.49887
419.62        74.41263
420.07        74.41079
420.51        74.45031
420.96        74.54637
421.41        74.61847
421.85        74.61335
422.30        74.71661
422.74        74.77963
423.19        74.48895
423.64        73.91282
424.08        73.58126
424.53         73.5719
424.98        73.62146
425.42        73.74585
425.87        74.18851
426.31         74.7579
426.76        74.83427
427.21        74.44032
427.65        74.05695
428.10        73.80545
428.54        73.73228
428.99         73.9269
429.44        73.99262
429.88        74.03927
430.33        74.98922
430.77         76.3089
431.22        76.54945
431.66        75.71741
432.11        74.77936
432.56        74.16518
433.00        74.07607
433.45        74.57569
433.89         75.5933
434.34        76.35992
434.78        76.73107
435.23        75.16005
435.67        73.82227
436.12        74.25805
436.57        74.53569
437.01        74.87723
437.46        75.28062
437.90        75.15697
438.35        74.19353
438.79        74.49936
439.24        74.37832
439.68        74.45594
440.13        74.66201
440.57         75.0444
441.02        75.36444
441.46        75.50885
441.91        76.17665
442.35        76.93376
442.80           76.26
443.24         74.6376
443.69        74.72369
444.13        76.30513
444.58        77.13614
445.02        76.63747
445.47        76.68063
445.91        77.18642
446.36        77.41362
446.80        77.29692
447.24        77.75789
447.69        77.58656
448.13        77.61111
448.58        77.63577
449.02        77.78471
449.47        78.01549
449.91        78.02602
450.36        77.83406
450.80        77.55969
451.25        77.32481
451.69        77.20083
452.13        77.23019
452.58        77.37317
453.02        77.55092
453.47        77.64382
453.91        77.60387
454.36        77.49168
454.80         77.3637
455.24        77.08988
455.69        76.66811
456.13        76.50181
456.58        76.75558
457.02        75.53561
457.46        75.93401
457.91        75.99488
458.35         76.3447
458.79        76.21655
459.24        75.64579
459.68        74.85087
460.13        74.10583
460.57        73.84799
461.01        74.24387
461.46        74.50191
461.90         74.9485
462.34        76.05017
462.79        75.69978
463.23        75.24239
463.68        75.67834
464.12        75.60597
464.56         75.3503
465.01        74.30556
465.45        72.90973
465.89        72.55873
466.34        73.08237
466.78         73.5825
467.22        73.91473
467.67        72.96343
468.11        72.83881
468.55        72.74676
468.99        73.20078
469.44        73.23782
469.88        72.85696
470.32        72.65342
470.77        72.64938
471.21        72.61993
471.65        72.54784
472.10        72.50231
472.54        72.49928
472.98        72.50687
473.42        72.49593
473.87        72.66464
474.31        72.84697
474.75        72.40205
475.20        71.56932
475.64        71.43949
476.08        71.96883
476.52        71.98515
476.97        71.37846
477.41        71.18275
477.85        71.69628
478.29         70.7291
478.74        71.50143
479.18        72.61376
479.62        71.76174
480.06        71.78523
480.50        71.71555
480.95        71.57198
481.39        71.41328
481.83        70.75055
482.27         71.1386
482.72        71.29195
483.16        71.49669
483.60        71.65762
484.04        71.75016
484.48        71.82352
484.93        71.68909
485.37        71.63975
485.81        71.29258
486.25        70.56783
486.69        72.80737
487.14        73.83333
487.58        71.76952
488.02        71.90277
488.46         70.4548
488.90        70.42929
489.34        71.73898
489.79         72.4959
490.23        71.95715
490.67        71.34557
491.11        70.75144
491.55        70.66484
491.99        71.00903
492.43        70.97269
492.88        70.55058
493.32        70.39146
493.76        70.54585
494.20        70.67582
494.64        70.76385
495.08        70.97619
495.52        71.21834
495.96        71.09139
496.41        70.65733
496.85        70.53044
497.29        70.59544
497.73        70.50351
498.17        69.49779
498.61        69.49063
499.05        70.14271
499.49        70.43875
499.93        70.07328
500.37        70.14431
500.82        70.54475
501.26         70.3215
501.70        70.01665
502.14        69.98179
502.58        70.33768
503.02        70.52719
503.46        70.52757
503.90        70.64485
504.34        70.82572
504.78         70.8318
505.22        70.62457
505.66        70.34279
506.10        70.09811
506.54        69.83106
506.98        69.52717
507.42        70.05244
507.86        69.86773
508.30         69.8713
508.74        69.95622
509.18        69.90659
509.62        69.83193
510.06        69.69784
510.50        69.61981
510.94        69.50364
511.38        69.41267
511.82        69.41869
512.26        69.52831
512.70        69.71729
513.14        69.92658
513.58        70.05884
514.02        70.08733
514.46         70.0399
514.90        69.95139
515.34        69.88288
515.78         69.8539
516.22        69.83994
516.66        69.84003
517.10         69.8537
517.54        69.87503
517.98        69.91261
518.42        69.93579
518.86        69.89092
519.30        69.77557
519.74        69.60957
520.18        69.45181
520.62        69.39439
521.06        69.45798
521.50        69.61666
521.93        69.81921
522.37        69.95753
522.81        70.00823
523.25        69.99184
523.69        69.94661
524.13        69.93841
524.57        69.97498
525.01        70.01949
525.45        70.03689
525.89        69.97504
526.32        69.82269
526.76        69.63663
527.20        69.42285
527.64        69.21159
528.08        69.02793
528.52        68.80942
528.96        68.63216
529.40        68.75028
529.83        69.10491
530.27        69.34335
530.71        69.39447
531.15        69.47784
531.59        69.58739
532.03        69.35828
532.46        69.19529
532.90        69.10821
533.34        69.09835
533.78        69.15375
534.22        69.19294
534.66        69.22946
535.09        69.19148
535.53        68.95815
535.97        68.58952
536.41        68.35056
536.85        68.27583
537.28        68.22942
537.72        68.21847
538.16        68.30668
538.60        68.47923
539.04         68.7142
539.47        68.92545
539.91        69.02439
540.35        68.97897
540.79        68.82154
541.22        68.62481
541.66        68.53062
542.10        68.56583
542.54        68.69054
542.97         68.8354
543.41         68.9239
543.85        68.91978
544.29         68.8561
544.72        68.75811
545.16        68.69636
545.60        68.67487
546.04        68.70605
546.47        68.76722
546.91        68.77287
547.35        68.74591
547.79        68.78791
548.22        68.88274
548.66         68.9979
549.10        69.13676
549.53        69.05058
549.97        68.82164
550.41        68.65183
550.84         68.6296
551.28        68.80237
551.72        69.05386
552.15        69.17039
552.59        69.17424
553.03        68.73907
553.46        68.86927
553.90        68.77457
554.34        68.75181
554.77        68.75749
555.21        68.80264
555.65        68.96301
556.08        69.16036
556.52        69.14877
556.96        68.94762
557.39        68.93841
557.83        69.08446
558.27        68.88004
558.70        68.39118
559.14        68.20742
559.57        68.31835
560.01        68.30849
560.45        68.20505
560.88        68.38766
561.32        68.79203
561.75        68.97354
562.19        68.94017
562.63        68.85364
563.06        68.78305
563.50        68.88782
563.93        69.05192
564.37        69.07896
564.80        68.97992
565.24          68.743
565.68        68.29858
566.11        68.95148
566.55        68.24352
566.98         68.2076
567.42         68.1992
567.85        68.33224
568.29        68.60655
568.72        68.95006
569.16        69.38506
569.60         69.6502
570.03        69.67568
570.47        69.86429
570.90        70.30346
571.34        69.43361
571.77        69.98698
572.21         70.3519
572.64        70.21533
573.08        70.32235
573.51        69.65303
573.95        69.58913
574.38        70.12267
574.82        70.11085
575.25        69.88118
575.69        70.33965
576.12        70.42226
576.56        69.62648
576.99        69.76412
577.42        69.76674
577.86        69.83347
578.29        71.11997
578.73        70.98235
579.16        70.79038
579.60        69.90696
580.03        69.72686
580.47        69.53774
580.90        70.57338
581.33        70.43659
581.77        70.59425
582.20        70.38874
582.64        71.16489
583.07         70.6496
583.51        70.34965
583.94        69.89679
584.37        69.85255
584.81        70.30116
585.24        70.40405
585.68        70.10922
586.11        70.17847
586.54        70.34324
586.98        69.28408
587.41         69.1058
587.85        69.51051
588.28        69.49929
588.71        69.55894
589.15        68.95945
589.58         69.4146
590.01         68.9596
590.45        68.72115
590.88        69.92319
591.31        69.80717
591.75        69.03162
592.18        68.69291
592.61        69.07927
593.05        69.21777
593.48        70.27345
593.91        70.30278
594.35        70.10852
594.78        69.34698
595.21        68.44387
595.65         68.8173
596.08        70.41203
596.51        70.18125
596.94        69.50055
597.38        68.98847
597.81        69.02185
598.24        69.80701
598.68        69.45126
599.11        68.80447
599.54        69.86521
599.97        70.13251
600.41        69.74664
600.84        69.00755
601.27         69.7716
601.70        69.46159
602.14        69.61418
602.57        69.26419
603.00         69.0639
603.43        68.44858
603.87        69.54081
604.30         69.8446
604.73        70.05563
605.16        68.90468
605.60        69.09092
606.03        68.70822
606.46        68.52812
606.89        68.69675
607.32        69.01682
607.76        68.71507
608.19        69.02183
608.62        68.85719
609.05        68.74531
609.48        68.77542
609.92        69.80469
610.35        69.58991
610.78        68.76492
611.21        68.85131
611.64        68.88788
612.07        69.22307
612.50        69.13266
612.94        69.06971
613.37        68.84763
613.80        69.01114
614.23        68.22052
614.66        68.12366
615.09        68.53873
615.52        68.76626
615.96        68.75407
616.39        68.85042
616.82        69.10258
617.25        68.46897
617.68        68.47291
618.11        68.43066
618.54        68.73164
618.97        68.77232
619.40        68.53558
619.84         68.6693
620.27        68.52176
620.70        68.60186
621.13        68.61018
621.56        68.09377
621.99        67.23248
622.42        66.97725
622.85        67.36489
623.28        67.57543
623.71        67.52673
624.14        67.76215
624.57        68.17522
625.00        67.94962
625.43         68.3615
625.86        68.21646
626.29        67.99493
626.72        67.64456
627.15        67.79375
627.58        67.80955
628.01        67.75066
628.44        67.81012
628.87        67.52727
629.30        67.36382
629.73        67.18298
630.16        67.54247
630.59        67.38056
631.02        67.61034
631.45         67.8714
631.88        68.06141
632.31        68.13835
632.74        68.14124
633.17        68.08118
633.60        67.95161
634.03        67.77131
634.46        67.54368
634.89         67.3157
635.32        67.14288
635.75        67.04179
636.18        66.99929
636.61        67.04521
637.04        66.88258
637.47        67.10909
637.89        67.21526
638.32         67.3095
638.75        67.32621
639.18         67.2555
639.61        67.10323
640.04        66.93251
640.47        66.86499
640.90        66.92364
641.33        67.07685
641.76        67.25204
642.18        67.33368
642.61        67.27065
643.04         67.1108
643.47         66.9225
643.90        66.81603
644.33        66.81805
644.76        66.89091
645.18        66.98716
645.61        67.01045
646.04        66.95123
646.47        66.85641
646.90        66.75667
647.33        66.70039
647.75        66.67397
648.18        66.66911
648.61        66.74689
649.04        66.83236
649.47        66.80569
649.89         67.5597
650.32        67.23102
650.75        67.06736
651.18        66.69204
651.61        66.66817
652.03         67.0315
652.46        67.30186
652.89        67.32764
653.32        67.31425
653.74        67.50454
654.17        66.44041
654.60        67.27443
655.03        67.42992
655.46         66.3446
655.88        66.95177
656.31        69.56026
656.74         72.8838
657.16        73.50792
657.59        73.73903
658.02        69.00531
658.45        68.14513
658.87        67.81586
659.30        67.47501
659.73        67.14487
660.15        68.70653
660.58        67.39304
661.01        67.21877
661.44        66.86617
661.86        66.56519
662.29        66.27685
662.72         66.8235
663.14        66.84055
663.57        66.77785
664.00        66.39565
664.42        66.42688
664.85        66.89084
665.27        67.34513
665.70        67.61375
666.13        67.70432
666.55        67.58633
666.98        67.17702
667.41        66.60835
667.83         66.5425
668.26        66.34917
668.69         66.5248
669.11        66.78239
669.54        66.98479
669.96        67.08907
670.39        67.13534
670.82        67.16449
671.24        67.22204
671.67         67.3188
672.09         67.3741
672.52        67.39449
672.94        67.44906
673.37        67.49671
673.80        67.33455
674.22        67.03452
674.65        66.86659
675.07        66.88124
675.50        66.92453
675.92         66.9566
676.35        66.95647
676.77        66.90937
677.20         66.8241
677.62        66.73533
678.05        66.69707
678.47        66.71886
678.90        66.78504
679.32        66.86646
679.75        66.93177
680.17        66.96686
680.60        66.98719
681.02         67.0029
681.45        67.03394
681.87         67.1011
682.30        67.15221
682.72        67.20326
683.15        67.32768
683.57        67.49374
684.00        67.48523
684.42        67.36164
684.85        67.40011
685.27        67.60535
685.70        67.84522
686.12        68.01756
686.54        68.04266
686.97        67.89593
687.39        67.60168
687.82        67.25622
688.24        67.10704
688.66        67.08669
689.09        67.23589
689.51        67.44719
689.94        67.56622
690.36        67.55743
690.78        67.45355
691.21        67.33286
691.63        67.30759
692.06         67.4072
692.48        67.60004
692.90        67.78977
693.33        67.83289
693.75        67.69799
694.17        67.40356
694.60        67.09263
695.02        67.00182
695.44        67.14909
695.87        67.47434
696.29        67.82635
696.71        67.74147
697.14        67.29771
697.56        67.10526
697.98        67.22896
698.41         67.2823
698.83        67.26315
699.25        67.47419
699.68        67.78237
700.10        67.87549
700.52        67.68911
700.94        67.33191
701.37        66.97457
701.79         66.8963
702.21        67.14732
702.64        67.61453
703.06          68.134
703.48        68.42319
703.90        68.40164
704.33        68.16013
704.75        67.80682
705.17        67.50717
705.59        67.33286
706.01        67.23799
706.44        67.21838
706.86        67.30204
707.28        67.46798
707.70        67.67136
708.12        67.88678
708.55        68.15765
708.97        68.41457
709.39        68.41016
709.81        68.19501
710.23        68.11367
710.66          68.202
711.08         68.2931
711.50        68.32608
711.92         68.3002
712.34        68.20683
712.76        68.06554
713.19        67.90438
713.61        67.80506
714.03        67.77887
714.45        67.81576
714.87        67.91313
715.29        68.06648
715.71        68.25884
716.13        68.47082
716.56        68.65978
716.98        68.84718
717.40        68.98255
717.82        69.06644
718.24        69.05683
718.66        68.89204
719.08        68.59216
719.50        68.20786
719.92        67.84856
720.34        67.68691
720.76        67.75848
721.19        67.96734
721.61        68.27023
722.03        68.64368
722.45        68.85514
722.87        69.05822
723.29        69.14346
723.71        69.02636
724.13        68.71486
724.55        68.25378
724.97        67.77702
725.39        67.49443
725.81         67.4639
726.23        67.63264
726.65        67.92963
727.07        68.24221
727.49        68.49374
727.91        68.73451
728.33        68.94418
728.75        69.10509
729.17        69.21152
729.59         69.2404
730.01        69.21772
730.43        69.22189
730.85        69.26842
731.27         69.3076
731.69        69.29009
732.10        69.31451
732.52        69.08085
732.94        68.87077
733.36         68.6745
733.78        68.49068
734.20        68.33075
734.62        68.43892
735.04        68.86383
735.46         68.3904
735.88        69.02416
736.30        69.12624
736.72        69.28884
737.13        69.41401
737.55        69.44048
737.97        69.57079
738.39        69.70789
738.81        69.31478
739.23        68.59537
739.65        68.63422
740.06        69.30767
740.48        69.59617
740.90        69.42759
741.32        69.39116
741.74        69.52859
742.16        69.60841
742.57        69.63298
742.99        69.64799
743.41        69.63593
743.83        69.55215
744.25        69.39902
744.67        69.18027
745.08        68.98169
745.50        68.92013
745.92        69.02174
746.34        69.23986
746.75        69.47497
747.17        69.53832
747.59        69.40128
748.01        69.17239
748.42        68.92924
748.84        68.73385
749.26        68.68343
749.68        68.82801
750.09        69.10669
750.51         69.5105
750.93        69.84781
751.35         69.6439
751.76        69.01896
752.18        68.65319
752.60        68.58825
753.01        68.52257
753.43        68.43059
753.85        68.27738
754.27        68.02628
754.68        68.47576
755.10        68.23833
755.52        68.45317
755.93        68.67694
756.35        68.91773
756.77        69.18836
757.18        69.34637
757.60        69.37226
758.02        69.66905
758.43        70.17303
758.85        69.23885
759.26        69.36674
759.68        68.89409
760.10        68.76333
760.51        69.50481
760.93        69.81976
761.34        69.68125
761.76        69.65254
762.18        69.44905
762.59        69.45077
763.01        69.54252
763.42        69.74525
763.84        69.80422
764.26        69.71119
764.67        69.57844
765.09        69.47243
765.50        69.36828
765.92        69.28453
766.33        69.09476
766.75        68.77332
767.16        68.59477
767.58        68.59079
768.00        68.61029
768.41        68.69213
768.83        69.17384
769.24        69.82066
769.66        69.81389
770.07        69.27035
770.49        68.95985
770.90        69.05406
771.32        69.56329
771.73        70.26714
772.15        70.50632
772.56        70.21976
772.97        69.70671
773.39        69.20255
773.80        69.06887
774.22        69.31496
774.63        69.66155
775.05         69.9187
775.46         70.0853
775.88        70.06859
776.29         69.8268
776.70        69.48612
777.12        69.34409
777.53        69.47182
777.95        69.73238
778.36        70.03828
778.77        70.20682
779.19         70.2097
779.60        70.13993
780.02        70.02071
780.43        69.97215
780.84         70.0497
781.26        69.89082
781.67        69.65692
782.09        70.30486
782.50        71.50486
782.91        71.57552
783.33        70.59779
783.74        70.17398
784.15        70.37698
784.57        70.32761
784.98        70.06873
785.39        69.92558
785.81        69.98737
786.22        70.54134
786.63        71.36979
787.04        71.65046
787.46        71.37955
787.87        71.16653
788.28        71.11886
788.70        71.01157
789.11        70.86533
789.52          70.869
789.93        70.96711
790.35        70.96522
790.76        70.85661
791.17        70.70278
791.58        70.57206
792.00        70.51735
792.41        70.52707
792.82        70.62592
793.23         70.7307
793.65        70.43396
794.06          69.978
794.47        70.27023
794.88         71.0727
795.29        71.72572
795.71        71.20162
796.12        70.97289
796.53        70.89302
796.94        70.77962
797.35        70.73142
797.76        71.08637
798.18        71.67171
798.59        71.94013
799.00        71.79244
799.41        71.47665
799.82         71.1506
800.23        70.99449
800.64        71.06921
801.06        71.28114
801.47        71.55327
801.88        71.66357
802.29        71.54966
802.70        71.28336
803.11         70.9538
803.52        70.70233
803.93         70.5987
804.34        70.61121
804.75        70.71782
805.17        70.94089
805.58        71.30219
805.99        71.54578
806.40        71.68891
806.81        72.29211
807.22          73.083
807.63        72.83469
808.04        71.73083
808.45        71.15641
808.86        71.24503
809.27        71.27092
809.68         71.1636
810.09        71.15111
810.50        71.21784
810.91        71.30258
811.32        71.44726
811.73        71.71486
812.14        72.09484
812.55         72.5529
812.96        72.95454
813.37        73.05546
813.78          72.803
814.19        72.30205
814.60        71.70967
815.01        71.23243
815.42        70.92416
815.83        70.72843
816.24          70.647
816.65        70.67474
817.05        70.80182
817.46        71.01592
817.87        71.24821
818.28        71.33427
818.69        71.24615
819.10         71.0013
819.51        70.75227
819.92        70.78696
820.33        71.16248
820.74        71.77477
821.14        72.41241
821.55        72.73216
821.96        72.65427
822.37        72.29164
822.78        71.80052
823.19        71.44867
823.60        71.33442
824.00        71.40166
824.41        71.55891
824.82        71.76057
825.23        71.95398
825.64        72.16239
826.04        72.33936
826.45         72.3581
826.86         72.2173
827.27        71.95344
827.68        71.63327
828.08         71.4105
828.49        71.28662
828.90        71.24436
829.31        71.30753
829.72        71.50874
830.12        71.85281
830.53        72.26752
830.94        72.62751
831.35        72.66726
831.75         72.3527
832.16        71.74997
832.57        71.06662
832.97        70.61781
833.38        70.49473
833.79        70.58386
834.20        70.83144
834.60        71.14118
835.01        71.46105
835.42         71.8712
835.82        72.24931
836.23        72.29725
836.64        72.00253
837.04        71.40269
837.45        70.84132
837.86        70.95193
838.26        71.87093
838.67        73.37241
839.08         74.9221
839.48        75.50811
839.89        74.86597
840.29        73.36578
840.70        71.71547
841.11        70.74249
841.51        70.66648
841.92         71.2073
842.33        72.11526
842.73        72.94589
843.14        73.39452
843.54        73.65025
843.95        73.74937
844.35        73.80058
844.76        73.82712
845.17        73.76596
845.57        73.61676
845.98        73.38033
846.38        73.09863
846.79        72.79473
847.19        72.53552
847.60        72.38583
848.00        72.36736
848.41        72.42912
848.81         72.5455
849.22          72.582
849.62        72.54765
850.03        72.47507
850.43        72.38776
850.84        72.25231
851.24        72.13435
851.65        71.97741
852.05        71.98228
852.46        72.37197
852.86        73.14001
853.27        74.14673
853.67        75.04928
854.07        75.51664
854.48        75.46289
854.88        75.02592
855.29        74.30249
855.69        73.63135
856.10        73.08601
856.50        72.67532
856.90        72.39105
857.31        72.22837
857.71        72.22382
858.12        72.33483
858.52        72.53197
858.92        72.61961
859.33        72.52643
859.73        72.33518
860.13         72.0482
860.54        71.71412
860.94        71.41785
861.34        71.13622
861.75        70.93906
862.15        70.98769
862.55        71.27357
862.96        71.70269
863.36        72.19956
863.76        72.53512
864.17        72.61776
864.57        72.54037
864.97        72.26093
865.38        71.73434
865.78        71.02631
866.18        70.15371
866.58        69.36079
866.99        69.07435
867.39        69.41779
867.79        70.26444
868.19        71.29525
868.60        71.99009
869.00        72.23862
869.40        72.12348
869.80        71.84152
870.21        71.78288
870.61        72.11636
871.01        72.64137
871.41        73.07799
871.81        73.04765
872.22         72.4846
872.62        71.52068
873.02        70.47459
873.42        69.87441
873.82        69.87615
874.22        70.33551
874.63        70.91719
875.03        71.09958
875.43        70.74554
875.83        70.03071
876.23        69.27126
876.63        68.94677
877.03        69.17229
877.44         69.7635
877.84        70.47015
878.24        70.88008
878.64        70.82159
879.04        70.29948
879.44        69.62199
879.84        69.34416
880.24        69.54413
880.64        70.01945
881.04        70.41916
881.44        70.19917
881.84        69.27458
882.24        67.89012
882.65        66.50146
883.05        65.79032
883.45        65.93284
883.85        66.71713
884.25        67.84174
884.65        68.78291
885.05         69.3284
885.45        69.60133
885.85        69.68395
886.25        69.71417
886.65        69.75338
887.05        69.73965
887.45        69.66676
887.85        69.55972
888.25        69.42758
888.65        69.28273
889.04        69.16837
889.44        69.15703
889.84        69.23801
890.24        69.39932
890.64        69.52291
891.04        69.41743
891.44        69.06547
891.84        68.54874
892.24        68.04547
892.64        67.81806
893.04        67.92717
893.44        68.30144
893.83        68.82716
894.23        69.25428
894.63        69.51708
895.03        69.65192
895.43        69.73395
895.83         69.8986
896.23        70.15845
896.63        70.43378
897.02        70.59752
897.42         70.4878
897.82        70.08669
898.22        69.50909
898.62        68.87251
899.01        68.32753
899.41        67.95376
899.81        67.69785
900.21        67.59914
900.61        67.71919
901.00        68.02789
901.40        68.47787
901.80        68.91192
902.20        69.06863
902.59        68.90889
902.99        68.52279
903.39        68.02977
903.79        67.63593
904.18         67.4146
904.58        67.29919
904.98        67.37298
905.38        67.76849
905.77        68.46852
906.17        69.45847
906.57        70.40929
906.96        70.76498
907.36        70.39922
907.76        69.47532
908.15        68.48904
908.55        68.22603
908.95        68.86578
909.34        70.17307
909.74        71.60915
910.14        72.35964
910.53        72.16605
910.93         71.3229
911.33        70.16333
911.72        69.18432
912.12        68.62888
912.52        68.35041
912.91        68.26948
913.31        68.29837
913.70         68.3866
914.10        68.54046
914.49        68.83216
914.89        69.26434
915.29        69.82343
915.68        70.47631
916.08        70.95317
916.47        70.91007
916.87        70.32605
917.26        69.31683
917.66        68.32172
918.05        67.84819
918.45        68.01324
918.84        68.72126
919.24        69.62402
919.64        70.22968
920.03        70.38052
920.42        70.16645
920.82        69.88465
921.21        69.95045
921.61        70.43748
922.00        71.24477
922.40        72.01962
922.79        72.31345
923.19        71.97962
923.58        71.21395
923.98         70.3743
924.37        69.90182
924.77        69.91824
925.16        70.25225
925.55        70.70322
925.95        70.90379
926.34        70.75879
926.74        70.37695
927.13         69.8658
927.52        69.31912
927.92        68.85116
928.31        68.42562
928.70        68.11948
929.10        68.02997
929.49        68.14194
929.89        68.35903
930.28         68.7297
930.67          69.201
931.07        69.69736
931.46        70.31792
931.85        70.73782
932.24        70.49875
932.64        69.61269
933.03        68.19109
933.42        66.91821
933.82        66.79633
934.21          67.992
934.60        70.27242
934.99        72.80657
935.39        74.07346
935.78        73.68233
936.17        71.96629
936.56        69.82773
936.96        68.71705
937.35        68.99582
937.74        70.20986
938.13        71.60833
938.53        72.01441
938.92        71.16326
939.31        69.55091
939.70        67.77711
940.09        66.65829
940.49        66.38324
940.88        66.69796
941.27        67.38978
941.66         68.0835
942.05         68.6055
942.44        69.10214
942.84        69.53655
943.23        69.82144
943.62        69.96134
944.01        69.88587
944.40        69.77077
944.79        69.96377
945.18        70.50336
945.57        71.28617
945.97        71.93358
946.36        71.89827
946.75        71.04575
947.14        69.66526
947.53        68.17681
947.92        67.15776
948.31        66.76847
948.70        66.84496
949.09        67.28471
949.48        67.90005
949.87        68.56746
950.26        69.31495
950.65        70.01823
951.04        70.47231
951.43        70.61514
951.82         70.4509
952.21        70.07435
952.60        69.68624
952.99          69.378
953.38        69.14389
953.77        68.98296
954.16        68.87484
954.55        68.80454
954.94        68.76937
955.33        68.80652
955.72        68.95881
956.11        69.21457
956.50        69.56025
956.89        69.80276
957.28        69.64069
957.66        69.01911
958.05        68.06799
958.44        67.12605
958.83        66.67951
959.22        66.81332
959.61        67.41657
960.00        68.13435
960.39        68.31336
960.78        67.78461
961.16         66.7524
961.55        65.70461
961.94        65.26233
962.33        65.57465
962.72        66.50513
963.11        67.67764
963.49        68.39169
963.88        68.32413
964.27        67.67188
964.66        66.96166
965.04        67.01613
965.43        67.93987
965.82        69.53761
966.21        71.13305
966.60        71.43527
966.98        70.11109
967.37        67.76466
967.76        65.33221
968.15         63.9553
968.53        63.86586
968.92        64.75687
969.31         66.1722
969.69        67.19122
970.08        67.36653
970.47        66.97651
970.86        66.49815
971.24        66.62358
971.63        67.50202
972.02        68.90532
972.40        70.34917
972.79        70.66756
973.17        69.64681
973.56        67.75765
973.95         65.7891
974.33        64.72119
974.72        64.75877
975.11        65.60656
975.49        66.90091
975.88        67.83892
976.26        68.15354
976.65        68.02025
977.04        67.66009
977.42         67.3892
977.81        67.27934
978.19        67.17753
978.58        67.14391
978.96        67.27443
979.35        67.52988
979.74        67.93304
980.12        68.37811
980.51        68.41179
980.89        68.08733
981.28        67.54287
981.66        67.01903
982.05        66.83544
982.43        67.08376
982.82         67.6143
983.20        68.53008
983.59         69.8788
983.97        71.62802
984.35        73.66521
984.74        75.36371
985.12        75.94164
985.51        75.18739
985.89        73.42007
986.28         71.3856
986.66        70.13268
987.04        70.00745
987.43        70.68807
987.81        71.90863
988.20        72.95589
988.58        73.51675
988.96          73.684
989.35        73.48694
989.73        72.94094
990.12        72.11015
990.50        71.05553
990.88        69.79466
991.27        68.48428
991.65        67.30988
992.03        66.29387
992.42        65.83353
992.80        66.41165
993.18        68.06906
993.56        70.69535
993.95        73.44748
994.33        74.87614
994.71        74.37766
995.10        72.44696
995.48        70.04639
995.86        68.71761
996.24        68.83311
996.63        69.85771
997.01        71.43858
997.39        72.43317
997.77        72.37008
998.15        71.76048
998.54        70.77054
998.92        69.46917
999.30        68.07336
999.68        66.49975
1000.06        65.33966
1000.45        65.43204
1000.83         66.9983
1001.21        70.01014
1001.59        73.58385
1001.97        75.52808
1002.35        75.06705
1002.73        72.82922
1003.12        70.41004
1003.50        69.86932
1003.88        71.74528
1004.26        75.39098
1004.64        79.82711
1005.02        82.88733
1005.40          83.577
1005.78        82.63855
1006.16        80.53111
1006.54        77.98048
1006.92        75.52313
1007.30        73.05569
1007.69        71.25868
1008.07        70.93015
1008.45        72.29683
1008.83        75.22913
1009.21        79.01248
1009.59        81.64966
1009.97        82.05342
1010.35        80.66904
1010.73         77.9805
1011.11        74.80708
1011.49        71.72703
1011.86        68.75641
1012.24        66.45574
1012.62        65.47337
1013.00        65.85843
1013.38        67.49071
1013.76        70.06837
1014.14        72.54412
1014.52        74.15077
1014.90        74.88045
1015.28        74.68803
1015.66        73.70422
1016.04        72.10278
1016.41        69.90426
1016.79        67.41924
1017.17        65.43098
1017.55        64.29639
1017.93        63.90836
1018.31        64.21085
1018.69        65.03709
1019.06        66.31364
1019.44        68.17896
1019.82        70.20845
1020.20          71.298
1020.58        71.01051
1020.95        69.52283
1021.33        67.93108
1021.71        67.48708
1022.09         68.4492
1022.46         70.7882
1022.84        73.72662
1023.22        75.29029
1023.60        74.65842
1023.97        72.28669
1024.35        70.11109
1024.73        70.35681
