SpectraSmart Spectrum 2.9.0.0
--------- Device Information -----------
Spectrum Name :  反射率_0
Saving Time :  2024/04/26 23:16:23
Spectro-Module Model Name : SE2030-DUVN
Spectro-Module Serial Number : OS361AC55029948
Wavelength Start : 200
Wavelength End : 1025
Wavelength Unit : Wavelength(nm)
Spectrum Unit : Reflectance(%)
-----------Spectrum Setting ------------
Integration Time : 20ms
Average : 10
Boxcar : 0
Background removal :  enabled
linearity correction :  enabled
SC :  disabled
Intensity correction :  disabled
DWT denoise :  enabled
savitzky-golay :  disabled
FFT :  disabled
Running average :  disabled
Kalman :  disabled
High pass :  disabled
---------------BEGIN--------------------
Wavelength(nm)             Reflectance(%)
200.29               0
200.75        54.08831
201.21        54.79771
201.67         55.0238
202.13        53.59007
202.58        50.23925
203.04        45.26326
203.50        39.81193
203.96        37.79518
204.42        42.02881
204.88        52.22543
205.34        64.92709
205.80        73.17498
206.26        74.56375
206.72        70.76398
207.18        65.71085
207.64        63.11963
208.10        63.30873
208.55        66.06393
209.01        68.90014
209.47        65.35515
209.93        55.85058
210.39        46.83541
210.85        41.43167
211.31         39.9785
211.77        42.22729
212.23        50.25755
212.69        75.21868
213.14        132.5806
213.60        156.8161
214.06        137.4026
214.52        116.9017
214.98        105.0738
215.44        97.47449
215.90        89.25735
216.36        82.05645
216.81         79.4546
217.27        82.68822
217.73        93.65208
218.19        108.6996
218.65        108.8837
219.11        90.99952
219.57        69.67432
220.02        55.83758
220.48        53.39426
220.94        60.37967
221.40        76.68714
221.86        101.6945
222.32        119.0346
222.77        113.7272
223.23        96.47028
223.69        78.35796
224.15        65.52403
224.61        57.44651
225.06        51.55462
225.52        47.84792
225.98        46.23793
226.44        46.21856
226.90        47.61193
227.36        49.33233
227.81        49.49051
228.27        47.89247
228.73        45.09621
229.19        42.35357
229.65        41.09025
230.10        41.33505
230.56        42.62105
231.02        43.87417
231.48        43.46725
231.93        41.25411
232.39        38.23691
232.85        35.58874
233.31        34.81833
233.77          36.017
234.22        38.61478
234.68         41.6649
235.14        43.81347
235.60        44.62714
236.05        44.48342
236.51        43.78826
236.97        43.40804
237.43        43.75662
237.88        44.62398
238.34        45.76717
238.80        47.09045
239.26        48.61683
239.71        50.78458
240.17        53.66778
240.63        57.44367
241.08        62.12584
241.54         67.2717
242.00        72.69865
242.46        78.71192
242.91        86.55521
243.37        96.50335
243.83        110.5131
244.28        128.3258
244.74        142.7176
245.20         148.447
245.66        146.0032
246.11        138.8672
246.57        129.4134
247.03        117.2316
247.48        103.0466
247.94        90.73618
248.40        83.26422
248.85        79.47282
249.31        77.62664
249.77        75.09356
250.22        70.82211
250.68        64.45326
251.14        56.56737
251.59          51.099
252.05        51.20105
252.51        55.66011
252.96        60.34009
253.42        61.62197
253.88        59.73796
254.33        56.03824
254.79        53.70949
255.25        55.25823
255.70        60.21719
256.16        67.26431
256.62        72.95698
257.07        72.38328
257.53        67.11167
257.99        60.44099
258.44        54.84723
258.90        52.44543
259.35        52.16388
259.81        53.11251
260.27         54.0138
260.72        53.43471
261.18        51.60626
261.63        49.07575
262.09        46.82837
262.55        45.43533
263.00        44.78454
263.46        44.63054
263.91        44.44025
264.37        43.81115
264.83        42.68663
265.28        41.26257
265.74        39.95473
266.19        39.00399
266.65        38.49582
267.11         38.2394
267.56        38.05571
268.02        37.67645
268.47        37.03837
268.93        36.25728
269.38        35.42688
269.84        34.73055
270.30        34.19087
270.75         33.7237
271.21        33.29389
271.66        32.80717
272.12        32.23856
272.57        31.60673
273.03        30.90901
273.48        30.13388
273.94        29.34611
274.39          28.539
274.85        27.81469
275.31         27.1978
275.76        26.67089
276.22        26.23987
276.67        25.85632
277.13        25.51482
277.58        25.16143
278.04        24.81485
278.49        24.40463
278.95         23.9261
279.40         23.3531
279.86        22.76589
280.31        22.17536
280.77        21.67427
281.22        21.25693
281.68         20.9399
282.13        20.70683
282.59        20.59368
283.04        20.56746
283.50        20.62305
283.95        20.70185
284.41        20.71486
284.86         20.6399
285.32        20.51958
285.77        20.38515
286.22         20.3324
286.68        20.38068
287.13        20.47311
287.59        20.59506
288.04        20.68937
288.50        20.75136
288.95        20.77155
289.41        20.76277
289.86        20.68938
290.32        20.58741
290.77        20.47457
291.22        20.39202
291.68        20.38689
292.13        20.47957
292.59        20.68551
293.04         21.0368
293.50        21.59401
293.95        22.34417
294.40        23.25721
294.86        24.26279
295.31        25.24395
295.77        26.17205
296.22        27.06705
296.68        27.96058
297.13        28.89702
297.58        29.90832
298.04         30.9893
298.49        32.16116
298.95        33.46926
299.40        34.90489
299.85        36.45812
300.31        38.07978
300.76        39.67803
301.21          41.232
301.67        42.76902
302.12        44.29852
302.58        45.90969
303.03        47.57999
303.48        49.30446
303.94        51.05578
304.39        52.74627
304.84        54.38848
305.30         56.0236
305.75        57.67183
306.20        59.43275
306.66         61.3288
307.11        63.29714
307.57        65.27552
308.02        67.08453
308.47        68.71113
308.93        70.20088
309.38        71.64725
309.83        73.29665
310.29        75.19199
310.74        77.25127
311.19        79.26467
311.65        80.86409
312.10        81.94312
312.55        82.60302
313.00        83.11423
313.46        83.90585
313.91        85.05995
314.36        86.48262
314.82        87.92282
315.27        88.97842
315.72         89.5333
316.18        89.74763
316.63        89.84547
317.08        90.21601
317.53        90.95902
317.99        91.94055
318.44        92.98551
318.89        93.78277
319.35        94.23603
319.80        94.44553
320.25        94.54614
320.70        94.75268
321.16        95.12558
321.61          95.631
322.06        96.15589
322.51        96.52973
322.97        96.69852
323.42        96.72842
323.87        96.77028
324.32        97.08202
324.78        97.68173
325.23        98.55682
325.68        99.42046
326.13        99.80763
326.59         99.6104
327.04        98.99937
327.49         98.3141
327.94        98.12168
328.39        98.56203
328.85        99.43703
329.30        100.5521
329.75        101.3153
330.20        101.5306
330.66        101.3434
331.11        101.0262
331.56        100.9452
332.01        101.2236
332.46        101.7226
332.92        102.2652
333.37        102.7145
333.82        102.9527
334.27        103.0905
334.72        103.1869
335.17        103.3126
335.63        103.5028
336.08        103.7797
336.53        104.1941
336.98         104.879
337.43        105.8357
337.88        106.9961
338.34        108.1887
338.79        109.2352
339.24         109.997
339.69        110.5134
340.14        110.7846
340.59        110.8427
341.05        110.7652
341.50        110.5563
341.95        110.3705
342.40        110.4366
342.85        110.8131
343.30        111.4595
343.75        112.2492
344.20        112.9497
344.66        113.4839
345.11        113.8934
345.56        114.2328
346.01        114.6039
346.46        115.0392
346.91        115.5031
347.36        115.9402
347.81        116.2857
348.26        116.5188
348.72        116.6467
349.17        116.7488
349.62        116.9852
350.07        117.3721
350.52        117.8787
350.97        118.2783
351.42        118.2097
351.87        117.6336
352.32        116.6872
352.77        115.7391
353.22        115.3237
353.67        115.5404
354.13         116.225
354.58         117.032
355.03        117.3426
355.48        116.9885
355.93        116.1474
356.38        115.1784
356.83        114.6231
357.28        114.5883
357.73        114.8817
358.18        115.1672
358.63        114.9173
359.08         114.015
359.53        112.6616
359.98         111.179
360.43        110.0219
360.88        109.2964
361.33         108.862
361.78        108.5007
362.23         107.873
362.68        106.9119
363.13        105.7616
363.58        104.6099
364.03         103.726
364.48        103.1649
364.93        102.8078
365.38        102.5333
365.83        102.1626
366.28        101.6306
366.73        100.9971
367.18        100.2719
367.63        99.46595
368.08        98.59921
368.53        97.66409
368.98        96.72633
369.43        95.89258
369.88        95.19115
370.33        94.61719
370.78         94.0971
371.23        93.50195
371.68        92.80412
372.13        92.03069
372.58        91.29041
373.03        90.75655
373.48        90.44311
373.93         90.2728
374.38        90.07584
374.83         89.5909
375.28        88.77396
375.72        87.71667
376.17        86.63084
376.62        85.72642
377.07        85.07944
377.52        84.63651
377.97        84.34979
378.42        84.15098
378.87        83.99026
379.32        83.84638
379.77        83.72501
380.22        83.63047
380.67        83.53582
381.11        83.45344
381.56        83.18881
382.01        82.54173
382.46        81.54418
382.91        80.34042
383.36        79.23298
383.81        78.62119
384.26        78.55072
384.71        78.87775
385.15        79.38186
385.60        79.66563
386.05        79.59779
386.50        79.28294
386.95        78.78418
387.40        78.21632
387.85        77.64806
388.29        77.00554
388.74        76.45016
389.19        76.00909
389.64        75.68575
390.09         75.4764
390.54        75.31857
390.98        75.08112
391.43        74.77248
391.88        74.41228
392.33        74.07347
392.78        73.81248
393.23        73.62874
393.67        73.59475
394.12        73.67091
394.57        73.34135
395.02        72.72948
395.47        72.58426
395.91        72.85954
396.36        72.79018
396.81        72.38052
397.26        72.09057
397.71        71.91383
398.15        71.69565
398.60        71.53329
399.05        71.17603
399.50        70.76164
399.95        71.02168
400.39        71.73571
400.84        71.55265
401.29        70.54291
401.74        70.02647
402.18        70.05555
402.63        69.72372
403.08        69.11767
403.53        68.83585
403.97        68.90246
404.42        69.10703
404.87         69.3183
405.32        69.35683
405.76        69.16147
406.21        68.84547
406.66        68.50644
407.11        68.25855
407.55        68.19654
408.00        68.33023
408.45        68.56918
408.90        68.71855
409.34        68.64793
409.79        68.22479
410.24         67.6302
410.68        67.31264
411.13        67.33762
411.58        67.48347
412.03        67.62872
412.47        67.65501
412.92        67.49479
413.37        67.22359
413.81        66.94463
414.26        66.87048
414.71        67.01437
415.15        67.33475
415.60        67.71071
416.05        68.00845
416.49        68.17182
416.94        68.22319
417.39        68.20925
417.83        68.19036
418.28        68.19641
418.73        68.21093
419.17        68.22265
419.62        68.22112
420.07        68.19918
420.51        68.14528
420.96        68.12247
421.41         68.1475
421.85        68.19617
422.30        68.37667
422.74        68.54193
423.19        68.46853
423.64        68.16865
424.08         67.9539
424.53         67.9127
424.98        67.98053
425.42        68.18349
425.87         68.6886
426.31        69.30269
426.76         69.3533
427.21        68.91397
427.65        68.71877
428.10        68.81634
428.54        68.84557
428.99        68.86913
429.44         68.8423
429.88        68.85751
430.33        69.47215
430.77        70.34296
431.22        70.56258
431.66        70.10873
432.11         69.6093
432.56        69.32571
433.00        69.27438
433.45        69.61557
433.89        70.51867
434.34        71.21822
434.78        71.76014
435.23         70.8579
435.67        68.23872
436.12        69.16673
436.57        69.50316
437.01        70.48153
437.46        70.92767
437.90        70.47174
438.35        70.08586
438.79        69.85807
439.24        69.81941
439.68        69.97382
440.13        70.47437
440.57         71.1969
441.02         71.3526
441.46        71.01945
441.91        71.58036
442.35        72.63223
442.80        72.40345
443.24        71.17984
443.69        71.16065
444.13        72.23788
444.58        72.64923
445.02        72.33592
445.47        72.27767
445.91        72.52134
446.36        72.72993
446.80        72.88763
447.24        73.07394
447.69        73.26099
448.13        73.38725
448.58        73.45821
449.02        73.45979
449.47         73.4256
449.91         73.3821
450.36        73.36457
450.80        73.34076
451.25        73.34335
451.69        73.36398
452.13        73.41382
452.58        73.48354
453.02        73.54613
453.47        73.56631
453.91        73.52817
454.36         73.4502
454.80        73.32825
455.24        73.13084
455.69        72.87306
456.13        72.62052
456.58        72.46027
457.02        72.15527
457.46        71.82761
457.91        72.15379
458.35        72.47591
458.79        72.42228
459.24        71.88012
459.68        71.13368
460.13        70.48003
460.57        70.29969
461.01        70.37392
461.46        70.83362
461.90        71.42767
462.34        71.84715
462.79         71.9688
463.23        71.91893
463.68         71.7078
464.12        71.39518
464.56        70.99663
465.01        70.55267
465.45        70.11022
465.89        69.75404
466.34        69.45685
466.78        69.57638
467.22        70.16655
467.67        69.07011
468.11        69.56152
468.55        69.45502
468.99         69.6543
469.44        69.63431
469.88        69.40528
470.32        69.17927
470.77        68.98928
471.21        68.88079
471.65        68.85487
472.10        68.89422
472.54        68.97028
472.98        68.99903
473.42        68.94393
473.87        69.00704
474.31        69.06917
474.75        68.62922
475.20         67.8974
475.64        67.75373
476.08        68.16539
476.52        68.20818
476.97         67.8066
477.41        67.73976
477.85        68.14347
478.29        67.61123
478.74        67.83981
479.18        68.55462
479.62        68.31861
480.06        68.44299
480.50        68.35061
480.95        68.23736
481.39        68.13439
481.83        67.82204
482.27        67.79718
482.72        67.97041
483.16        68.06588
483.60        67.87279
484.04        68.08398
484.48        68.22614
484.93        68.35487
485.37        68.05106
485.81        67.64081
486.25        67.31056
486.69        68.80029
487.14         69.9886
487.58        68.40141
488.02        67.90214
488.46        66.96003
488.90        66.81756
489.34        68.16335
489.79        68.95056
490.23        68.07814
490.67        67.45821
491.11        67.00009
491.55        66.96564
491.99        67.26118
492.43        67.22601
492.88        66.86172
493.32        66.74103
493.76         66.8839
494.20        66.97901
494.64        67.00407
495.08        67.04655
495.52        67.09915
495.96         67.1525
496.41        67.18206
496.85        67.18325
497.29        67.06072
497.73        67.01691
498.17        66.28773
498.61         66.2816
499.05        66.66385
499.49         66.7502
499.93        66.31952
500.37        66.31049
500.82        66.62191
501.26        66.67841
501.70        66.48927
502.14        66.46442
502.58        66.61962
503.02        66.72379
503.46        66.76835
503.90        66.86945
504.34        66.96986
504.78        66.92491
505.22        66.71533
505.66        66.40822
506.10         66.1257
506.54        65.94121
506.98        65.84633
507.42        66.18637
507.86        66.35365
508.30        66.15862
508.74         66.4343
509.18         66.3595
509.62        66.25578
510.06        66.14719
510.50        66.06412
510.94        65.97254
511.38        65.89076
511.82         65.8792
512.26        65.94302
512.70        66.07469
513.14        66.22891
513.58        66.32552
514.02        66.34509
514.46        66.30575
514.90        66.25274
515.34        66.26357
515.78        66.35133
516.22        66.48215
516.66        66.60882
517.10        66.65807
517.54        66.61213
517.98        66.50259
518.42        66.35396
518.86        66.20431
519.30         66.0731
519.74        65.94958
520.18        65.85609
520.62        65.82423
521.06        65.85834
521.50         65.9611
521.93        66.08679
522.37        66.13531
522.81        66.09615
523.25        65.98696
523.69        65.88395
524.13        65.91196
524.57        66.08346
525.01        66.34328
525.45        66.59113
525.89        66.66605
526.32        66.52664
526.76        66.25674
527.20        65.92442
527.64        65.64096
528.08        65.45121
528.52        65.32201
528.96        65.27472
529.40        65.34113
529.83        65.50578
530.27        65.76406
530.71        66.02169
531.15        66.13084
531.59        66.06089
532.03        65.84781
532.46        65.57533
532.90        65.42876
533.34        65.43973
533.78        65.52001
534.22        65.60555
534.66        65.67744
535.09        65.66388
535.53        65.45077
535.97        65.11243
536.41        64.93182
536.85         64.9447
537.28        65.00839
537.72        65.10091
538.16         65.2393
538.60        65.39898
539.04        65.57101
539.47        65.70306
539.91        65.75775
540.35        65.71389
540.79        65.58666
541.22        65.41935
541.66        65.30558
542.10        65.26393
542.54        65.27777
542.97        65.30421
543.41        65.30264
543.85        65.25337
544.29        65.18246
544.72        65.11052
545.16        65.10113
545.60        65.15097
546.04        65.25918
546.47        65.40131
546.91        65.49851
547.35        65.54789
547.79        65.63622
548.22        65.74413
548.66        65.77073
549.10        65.77863
549.53        65.75975
549.97        65.73113
550.41        65.58395
550.84        65.40022
551.28        65.34884
551.72        65.37718
552.15        65.45987
552.59         65.6671
553.03        65.04787
553.46        65.55872
553.90        65.48954
554.34        65.41132
554.77        65.32697
555.21        65.28556
555.65        65.31478
556.08         65.3935
556.52         65.4731
556.96        65.51456
557.39        65.63369
557.83         65.7707
558.27        65.56528
558.70         65.1054
559.14        64.93833
559.57        65.05528
560.01        65.07228
560.45        64.99436
560.88        65.10711
561.32         65.3862
561.75        65.54206
562.19        65.56382
562.63         65.5123
563.06        65.41201
563.50        65.35149
563.93         65.2914
564.37        65.24084
564.80        65.23893
565.24        65.19376
565.68        64.95281
566.11        65.66982
566.55        64.98484
566.98        64.79819
567.42        64.59204
567.85        64.77305
568.29        65.28036
568.72        65.64629
569.16        65.89552
569.60        66.03459
570.03        66.26465
570.47        66.41865
570.90        66.59615
571.34        66.13401
571.77          66.406
572.21        66.85605
572.64          66.311
573.08        67.06292
573.51        66.07214
573.95        66.13898
574.38         66.6356
574.82        66.75446
575.25        66.36877
575.69        66.55884
576.12         66.8115
576.56         65.7355
576.99        65.91154
577.42        66.10793
577.86        66.30049
578.29        67.20843
578.73        67.15012
579.16        66.97483
579.60        66.28645
580.03        66.33994
580.47        66.26904
580.90        67.02192
581.33        66.97333
581.77        67.31963
582.20         67.1524
582.64         67.5591
583.07        67.33691
583.51        66.66829
583.94        66.15833
584.37        66.03152
584.81        66.46819
585.24        66.68595
585.68        66.54805
586.11        66.81396
586.54        66.63605
586.98        66.22792
587.41        65.58269
587.85        65.73488
588.28        66.05176
588.71        65.98358
589.15        65.52213
589.58        65.85448
590.01        65.52716
590.45        65.50249
590.88        66.34715
591.31        66.29267
591.75          65.783
592.18        65.32775
592.61        65.14981
593.05         65.9491
593.48        66.72845
593.91        66.61526
594.35        66.60174
594.78        65.89066
595.21           65.09
595.65        65.33304
596.08        66.68835
596.51        66.41336
596.94        65.84747
597.38        65.50156
597.81         65.8418
598.24        65.95998
598.68        65.82049
599.11          65.497
599.54        66.71983
599.97         66.2177
600.41         66.1976
600.84        65.66507
601.27        66.08727
601.70        65.90812
602.14        65.99285
602.57        65.68444
603.00        65.43435
603.43        64.85631
603.87        65.93529
604.30        66.16588
604.73        66.11524
605.16        65.43742
605.60        65.44957
606.03        65.14307
606.46        64.86297
606.89        65.16227
607.32        65.38858
607.76        65.13017
608.19        65.43931
608.62        65.45247
609.05         65.4707
609.48        65.36948
609.92         66.0629
610.35        65.60585
610.78        65.38509
611.21        65.53024
611.64        65.43524
612.07        65.61139
612.50         65.4175
612.94        65.40555
613.37        65.45348
613.80        65.17963
614.23        64.72746
614.66        64.76487
615.09        65.25388
615.52        65.43321
615.96        65.21764
616.39        65.24346
616.82        65.57115
617.25         64.8773
617.68        64.90222
618.11        64.90301
618.54        65.28552
618.97        65.30538
619.40        64.99335
619.84        64.90307
620.27        64.92097
620.70        65.03176
621.13        65.08882
621.56        64.54967
621.99        63.87212
622.42        63.54929
622.85        63.74218
623.28        63.85135
623.71         64.2206
624.14        64.02345
624.57         64.4826
625.00        64.20808
625.43        64.50661
625.86        64.42715
626.29        64.30015
626.72        64.10732
627.15        64.18742
627.58        64.18045
628.01        64.10098
628.44        64.14626
628.87        64.37168
629.30        63.74313
629.73        63.91748
630.16        64.13645
630.59        64.03997
631.02        64.25432
631.45        64.49233
631.88        64.62543
632.31        64.58733
632.74        64.68031
633.17        64.48068
633.60         64.3584
634.03        64.20464
634.46        64.02734
634.89        63.84634
635.32          63.718
635.75        63.66193
636.18        63.59459
636.61        63.53645
637.04        63.55451
637.47        63.64395
637.89        63.77733
638.32        63.88343
638.75        63.89243
639.18        63.78611
639.61        63.61727
640.04        63.46494
640.47        63.28525
640.90        63.37838
641.33        63.49728
641.76        63.65921
642.18         63.7561
642.61         63.7403
643.04        63.64735
643.47        63.53223
643.90        63.49118
644.33        63.54342
644.76        63.65499
645.18        63.76835
645.61        63.77585
646.04        63.66294
646.47        63.47282
646.90        63.27028
647.33        63.14333
647.75        63.09695
648.18        63.16972
648.61        63.35195
649.04        63.38927
649.47         63.2041
649.89        63.79274
650.32        63.46064
650.75        63.49982
651.18        63.44314
651.61        63.45651
652.03        63.53075
652.46        63.54416
652.89        63.53337
653.32        63.48597
653.74        63.51488
654.17        63.57075
654.60        63.96959
655.03        63.83668
655.46        63.44791
655.88         63.1973
656.31        65.57156
656.74        68.71537
657.16        69.89368
657.59        70.45335
658.02        66.12495
658.45        65.25146
658.87        63.83853
659.30        64.02798
659.73        64.00575
660.15          65.094
660.58        63.76375
661.01          63.598
661.44        63.69481
661.86        63.45916
662.29        62.90462
662.72        63.29564
663.14        63.37407
663.57        63.41496
664.00        63.14347
664.42        63.19959
664.85        63.59115
665.27        63.96159
665.70        64.16994
666.13        64.22478
666.55        64.10637
666.98        63.73877
667.41        63.23447
667.83        63.19779
668.26        63.02234
668.69        63.18604
669.11        63.41662
669.54        63.58408
669.96        63.64912
670.39        63.65022
670.82        63.63174
671.24        63.64154
671.67        63.69364
672.09        63.72985
672.52        63.75507
672.94        63.79174
673.37        63.81766
673.80        63.72794
674.22        63.56767
674.65        63.47353
675.07        63.48005
675.50        63.50184
675.92        63.51558
676.35        63.50128
676.77        63.45292
677.20         63.3788
677.62         63.3106
678.05         63.2979
678.47        63.34636
678.90        63.43838
679.32        63.54227
679.75        63.62163
680.17        63.66022
680.60        63.67449
681.02        63.66869
681.45         63.6551
681.87        63.65474
682.30        63.62106
682.72        63.58989
683.15        63.66265
683.57        63.81913
684.00        63.85294
684.42        63.79274
684.85         63.8559
685.27        64.03615
685.70        64.21487
686.12        64.33723
686.54        64.38829
686.97        64.35197
687.39        64.24389
687.82        64.09059
688.24        63.95545
688.66        63.86057
689.09        63.79677
689.51        63.78022
689.94        63.80254
690.36        63.86372
690.78        63.94545
691.21        64.04648
691.63        64.15545
692.06        64.26402
692.48        64.38004
692.90         64.4475
693.33        64.38689
693.75         64.1946
694.17        63.87141
694.60        63.55189
695.02        63.47629
695.44        63.66306
695.87        64.01028
696.29        64.37173
696.71        64.41624
697.14         64.1596
697.56         63.9142
697.98        63.79368
698.41        63.79921
698.83        63.82797
699.25        64.10178
699.68        64.42883
700.10        64.53278
700.52        64.33938
700.94        63.95535
701.37        63.54812
701.79        63.38614
702.21        63.52556
702.64        63.86212
703.06        64.26682
703.48         64.5114
703.90        64.52861
704.33         64.3989
704.75        64.18638
705.17        63.98325
705.59        63.83757
706.01        63.71539
706.44        63.65435
706.86        63.73836
707.28         63.9553
707.70        64.28059
708.12         64.6251
708.55        64.83445
708.97        64.87253
709.39        64.76256
709.81        64.57037
710.23        64.43996
710.66        64.41088
711.08        64.45129
711.50        64.49818
711.92        64.47498
712.34        64.36762
712.76         64.2195
713.19        64.06306
713.61        63.98271
714.03        63.99094
714.45         64.0687
714.87        64.21056
715.29        64.41335
715.71        64.65792
716.13        64.92194
716.56        65.15634
716.98        65.36813
717.40         65.5031
717.82        65.56199
718.24        65.51123
718.66        65.30328
719.08         64.9642
719.50        64.54854
719.92        64.15941
720.34        63.94661
720.76        63.94501
721.19        64.08868
721.61        64.36429
722.03        64.69279
722.45        65.01797
722.87        65.34167
723.29        65.57091
723.71        65.56175
724.13        65.30396
724.55        64.84995
724.97        64.34647
725.39          64.045
725.81        64.01622
726.23        64.17382
726.65        64.43228
727.07        64.78722
727.49        64.95219
727.91        65.15189
728.33         65.3185
728.75        65.46107
729.17        65.57521
729.59        65.63289
730.01        65.64604
730.43        65.64512
730.85        65.63667
731.27        65.62217
731.69        65.57691
732.10        65.45512
732.52        65.25696
732.94        65.01853
733.36        64.81956
733.78        64.66397
734.20        64.56054
734.62        64.73171
735.04        65.19424
735.46        64.75868
735.88        65.31939
736.30        65.33891
736.72        65.40578
737.13        65.49072
737.55         65.5546
737.97        65.72924
738.39        65.91388
738.81        65.68099
739.23        65.16858
739.65        65.18723
740.06        65.65083
740.48        65.83185
740.90        65.67639
741.32        65.61117
741.74        65.67621
742.16        65.71796
742.57        65.74338
742.99        65.78393
743.41        65.80526
743.83        65.73405
744.25        65.56625
744.67        65.31491
745.08        65.08801
745.50        65.03744
745.92        65.20104
746.34        65.52634
746.75        65.88039
747.17          66.035
747.59        65.94384
748.01        65.67596
748.42        65.35983
748.84        65.20425
749.26        65.26009
749.68        65.44996
750.09        65.68138
750.51         65.8114
750.93        65.79532
751.35        65.69988
751.76        65.53905
752.18        65.33497
752.60        65.10773
753.01        64.87243
753.43        64.66307
753.85        64.56841
754.27        64.61185
754.68        64.77888
755.10         65.0209
755.52        65.24855
755.93        65.41833
756.35        65.54261
756.77        65.67448
757.18        65.73706
757.60        65.70929
758.02        65.91802
758.43        66.35212
758.85        65.49947
759.26        65.62708
759.68        65.33662
760.10        65.32669
760.51        65.30814
760.93        65.29119
761.34        65.46235
761.76         65.7426
762.18        65.87601
762.59        65.88406
763.01        65.91603
763.42        66.05893
763.84        66.13609
764.26        66.16032
764.67         66.2754
765.09        66.43182
765.50        66.20498
765.92         65.7375
766.33        65.56383
766.75        65.63777
767.16        65.58471
767.58        65.34319
768.00        65.18613
768.41        65.18266
768.83        65.24297
769.24        65.33224
769.66        65.55161
770.07        65.79301
770.49        65.58193
770.90        65.11228
771.32        65.39645
771.73        66.29267
772.15        66.59268
772.56        66.23466
772.97        65.85419
773.39        65.61263
773.80        65.50247
774.22        65.55361
774.63        65.81164
775.05        66.11263
775.46        66.25919
775.88        66.17058
776.29        65.93359
776.70        65.66685
777.12        65.58875
777.53        65.75808
777.95        66.05434
778.36          66.398
778.77        66.62292
779.19        66.69598
779.60        66.69401
780.02        66.60446
780.43        66.50146
780.84         66.4405
781.26        66.07438
781.67        65.60969
782.09        66.12302
782.50        67.29178
782.91        67.31628
783.33        66.30237
783.74        65.96915
784.15        66.38573
784.57        66.60949
784.98        66.58359
785.39        66.52112
785.81        66.48816
786.22        66.73758
786.63         67.1941
787.04        67.42432
787.46        67.40508
787.87        67.34989
788.28        67.31782
788.70        67.28727
789.11        67.25382
789.52        67.24716
789.93        67.24249
790.35        67.18821
790.76        67.08792
791.17         66.9566
791.58        66.83041
792.00        66.70131
792.41        66.59166
792.82        66.62886
793.23        66.76439
793.65        66.63671
794.06         66.4165
794.47        66.76934
794.88        67.45509
795.29        68.08249
795.71        67.53638
796.12        67.19441
796.53        66.89931
796.94        66.66843
797.35        66.59695
797.76        66.82453
798.18        67.21868
798.59        67.44361
799.00        67.41451
799.41        67.27421
799.82        67.11527
800.23        67.05484
800.64        67.12883
801.06        67.25627
801.47        67.42242
801.88        67.51957
802.29        67.51505
802.70        67.44842
803.11        67.33722
803.52        67.20467
803.93        67.08254
804.34        66.96985
804.75        66.91164
805.17         67.0128
805.58        67.31782
805.99        67.63162
806.40        67.89626
806.81        68.34541
807.22        68.77627
807.63        68.45929
808.04         67.5676
808.45        67.05547
808.86         67.0366
809.27        67.03994
809.68        66.98612
810.09        66.95495
810.50        66.92287
810.91        66.87738
811.32         66.8914
811.73        67.07434
812.14        67.43212
812.55        67.91415
812.96        68.38002
813.37        68.57378
813.78        68.42484
814.19        68.03092
814.60        67.53211
815.01        67.11484
815.42        66.83499
815.83        66.64733
816.24         66.5586
816.65        66.57803
817.05        66.70217
817.46        66.90648
817.87        67.15215
818.28        67.32561
818.69        67.39816
819.10         67.3755
819.51        67.31596
819.92        67.33944
820.33        67.47263
820.74        67.67404
821.14        67.87083
821.55        67.93992
821.96        67.85991
822.37        67.68291
822.78        67.47914
823.19        67.36263
823.60        67.37277
824.00        67.49398
824.41        67.65394
824.82        67.83543
825.23         68.0007
825.64        68.14718
826.04        68.24824
826.45        68.22263
826.86        68.07829
827.27        67.85513
827.68        67.58266
828.08        67.34153
828.49        67.12212
828.90        66.92659
829.31         66.8411
829.72        66.99975
830.12        67.42969
830.53        68.03474
830.94        68.61329
831.35        68.77074
831.75        68.43344
832.16        67.70258
832.57        66.86304
832.97        66.35417
833.38        66.30038
833.79        66.55546
834.20        66.98861
834.60         67.3874
835.01         67.6686
835.42        67.93246
835.82         68.1461
836.23         68.1675
836.64        68.01544
837.04        67.68668
837.45        67.37293
837.86        67.46111
838.26        68.04107
838.67        68.96613
839.08        69.91338
839.48        70.25246
839.89        69.81419
840.29        68.82246
840.70        67.75801
841.11        67.14346
841.51        67.12428
841.92        67.52008
842.33        68.15559
842.73        68.72246
843.14        68.99556
843.54        69.12193
843.95        69.16139
844.35         69.2626
844.76        69.44197
845.17        69.62333
845.57        69.75135
845.98        69.72562
846.38        69.54568
846.79        69.25047
847.19        68.90133
847.60        68.56514
848.00        68.28693
848.41        68.03564
848.81        67.84489
849.22        67.68378
849.62        67.59045
850.03        67.57349
850.43         67.6318
850.84        67.68717
851.24        67.76904
851.65        67.82682
852.05        67.99078
852.46        68.37629
852.86        68.96449
853.27        69.65892
853.67        70.22517
854.07        70.47243
854.48         70.3484
854.88        69.95769
855.29        69.35936
855.69        68.80412
856.10        68.33814
856.50        67.99066
856.90        67.77238
857.31        67.70769
857.71        67.83387
858.12        68.08556
858.52        68.41142
858.92        68.59544
859.33        68.56168
859.73        68.40527
860.13         68.1285
860.54        67.78076
860.94        67.44564
861.34        67.08572
861.75        66.81193
862.15         66.8493
862.55        67.19762
862.96        67.76141
863.36        68.35563
863.76        68.56806
864.17        68.28843
864.57        67.68246
864.97        66.89999
865.38        66.19233
865.78        65.68401
866.18        65.29576
866.58        65.10385
866.99        65.22724
867.39        65.67793
867.79        66.42167
868.19        67.22241
868.60        67.69273
869.00        67.77018
869.40        67.48232
869.80        67.06179
870.21        66.97569
870.61        67.39912
871.01        68.13212
871.41        68.78959
871.81        68.82872
872.22        68.16048
872.62        66.95503
873.02        65.64381
873.42        64.95975
873.82        65.10925
874.22        65.87679
874.63        66.80051
875.03        67.16041
875.43        66.76483
875.83        65.85008
876.23        64.82386
876.63        64.30453
877.03        64.45115
877.44        65.04597
877.84        65.78539
878.24        66.17966
878.64        66.04266
879.04        65.40722
879.44        64.65536
879.84        64.46206
880.24        64.91589
880.64        65.74892
881.04        66.53371
881.44        66.60712
881.84        65.82906
882.24          64.463
882.65        62.98096
883.05        62.09635
883.45        62.00986
883.85         62.5177
884.25        63.34036
884.65        63.99185
885.05        64.29386
885.45        64.38644
885.85        64.38322
886.25        64.45816
886.65        64.65826
887.05        64.88325
887.45        65.07207
887.85        65.15585
888.25        65.11057
888.65        64.98457
889.04        64.79963
889.44        64.60201
889.84        64.40392
890.24        64.20047
890.64        64.02429
891.04        63.92978
891.44        63.92769
891.84        64.01215
892.24        64.13122
892.64        64.19566
893.04        64.19799
893.44        64.17897
893.83        64.21201
894.23        64.36508
894.63        64.67102
895.03        65.07044
895.43        65.52876
895.83        66.00247
896.23        66.43188
896.63        66.78207
897.02        66.95809
897.42        66.84595
897.82        66.44134
898.22        65.83681
898.62         65.1194
899.01        64.39977
899.41        63.77154
899.81        63.23251
900.21        62.89589
900.61        62.93225
901.00        63.34015
901.40        64.02689
901.80        64.80191
902.20        65.35248
902.59        65.58746
902.99        65.57742
903.39        65.35957
903.79        65.01731
904.18        64.60959
904.58        64.12346
904.98        63.72587
905.38        63.67801
905.77        64.01537
906.17        64.70199
906.57        65.44677
906.96        65.74635
907.36        65.46938
907.76        64.76184
908.15        64.01508
908.55        63.84035
908.95        64.37697
909.34        65.43621
909.74        66.56744
910.14         67.1142
910.53        66.87437
910.93        66.09254
911.33        65.08207
911.72        64.30853
912.12        63.98098
912.52        63.95754
912.91         64.1085
913.31        64.26253
913.70        64.35915
914.10        64.42608
914.49        64.58576
914.89        64.94282
915.29        65.51353
915.68        66.23412
916.08        66.81768
916.47        66.87814
916.87        66.37444
917.26        65.44183
917.66        64.48703
918.05        63.97817
918.45        64.02328
918.84        64.51468
919.24        65.17593
919.64        65.64108
920.03        65.78605
920.42        65.69279
920.82        65.51817
921.21        65.45218
921.61        65.53353
922.00        65.71271
922.40        65.88533
922.79        66.02739
923.19        66.08801
923.58         66.1204
923.98        66.13672
924.37        66.08665
924.77        65.99458
925.16        65.83031
925.55        65.68694
925.95        65.70676
926.34        65.92702
926.74        66.28371
927.13        66.59454
927.52        66.50476
927.92        66.01096
928.31        65.22648
928.70        64.43953
929.10        64.06235
929.49        64.16592
929.89        64.55823
930.28        65.14435
930.67        65.64049
931.07        65.90525
931.46        66.12099
931.85        66.11236
932.24        65.64552
932.64        64.79261
933.03        63.59937
933.42        62.60122
933.82        62.58481
934.21        63.66403
934.60        65.65114
934.99        67.86507
935.39        69.05556
935.78        68.88615
936.17        67.59849
936.56        65.87595
936.96        64.82053
937.35          64.738
937.74         65.3296
938.13        66.05822
938.53        66.09116
938.92        65.25783
939.31        63.90096
939.70        62.55748
940.09        61.96458
940.49        62.24659
940.88        63.18379
941.27         64.3628
941.66        65.04263
942.05        64.99926
942.44        64.50003
942.84        63.87961
943.23        63.65236
943.62        63.96487
944.01        64.57314
944.40        65.37491
944.79        66.23803
945.18        67.03793
945.57        67.81216
945.97        68.25314
946.36        67.94637
946.75        66.83268
947.14        65.13141
947.53        63.35163
947.92        62.21411
948.31        61.89688
948.70        62.24519
949.09        62.99089
949.48        63.63876
949.87        63.99754
950.26           64.16
950.65        64.27697
951.04        64.61195
951.43        65.19698
951.82        65.88519
952.21        66.40121
952.60        66.34961
952.99        65.69346
953.38        64.63364
953.77        63.51801
954.16        62.87088
954.55         62.8257
954.94        63.21357
955.33        63.86686
955.72        64.46368
956.11        64.85874
956.50        65.16832
956.89        65.27609
957.28        65.00082
957.66        64.35014
958.05        63.38938
958.44        62.49341
958.83        62.22967
959.22        62.67882
959.61         63.7102
960.00        64.87095
960.39        65.29972
960.78        64.76437
961.16        63.54372
961.55        62.20172
961.94         61.4743
962.33        61.55046
962.72        62.24933
963.11        63.24562
963.49        63.94326
963.88        64.01926
964.27        63.61638
964.66        63.11664
965.04        63.10838
965.43        63.66142
965.82        64.68395
966.21        65.57485
966.60        65.24228
966.98        63.49561
967.37        60.87011
967.76         58.4361
968.15        57.52591
968.53        58.33706
968.92         60.5178
969.31         63.2079
969.69        64.64738
970.08        64.15982
970.47        62.32913
970.86         60.1957
971.24        59.22147
971.63        59.74779
972.02        61.36496
972.40        63.45312
972.79        64.53365
973.17        64.17673
973.56        62.91073
973.95        61.47265
974.33        60.80036
974.72        61.10296
975.11        62.03008
975.49        63.23645
975.88        64.01633
976.26        64.14488
976.65        63.83204
977.04        63.26764
977.42        62.68995
977.81        62.18355
978.19        61.64561
978.58          61.294
978.96         61.4566
979.35        62.13758
979.74        63.28213
980.12        64.55661
980.51        65.09991
980.89        64.82738
981.28        63.98075
981.66        63.01054
982.05        62.55119
982.43        62.77523
982.82        63.44916
983.20        64.56058
983.59         65.9551
983.97        67.53595
984.35        69.28934
984.74         70.6978
985.12        71.14967
985.51        70.46997
985.89        68.87212
986.28        67.05627
986.66        66.01064
987.04         66.0589
987.43        66.96479
987.81        68.31352
988.20          69.131
988.58        69.09516
988.96        68.37921
989.35        67.46202
989.73        67.03121
990.12        67.21177
990.50        67.83804
990.88        68.31808
991.27        67.68484
991.65        65.82438
992.03         63.1801
992.42        60.73729
992.80        59.77599
993.18        60.54473
993.56        62.71032
993.95         65.3708
994.33        66.92805
994.71        66.70043
995.10        65.26113
995.48        63.43929
995.86         62.5648
996.24        62.95554
996.63        64.03461
997.01        65.54441
997.39        66.61639
997.77         66.8517
998.15        66.71958
998.54        66.11869
998.92        64.72212
999.30         62.7523
999.68         60.3113
1000.06        58.41904
1000.45        58.55666
1000.83        61.05724
1001.21        65.69839
1001.59        71.20123
1001.97        74.39982
1002.35        74.05441
1002.73        71.09264
1003.12        67.38185
1003.50        65.34701
1003.88        65.64284
1004.26        67.43202
1004.64        70.10347
1005.02        72.30875
1005.40        73.32721
1005.78        73.79836
1006.16         73.3715
1006.54        71.42669
1006.92        68.23915
1007.30        64.07973
1007.69        60.48338
1008.07         59.5442
1008.45         61.8108
1008.83         66.9102
1009.21        73.42429
1009.59        77.63524
1009.97        77.73624
1010.35        74.74059
1010.73         70.1822
1011.11        66.36866
1011.49        64.10519
1011.86        62.75291
1012.24        62.28051
1012.62         62.6823
1013.00        63.83493
1013.38        65.87883
1013.76        68.49613
1014.14        70.53586
1014.52        71.32993
1014.90        70.99377
1015.28        69.75475
1015.66        68.10953
1016.04        66.29561
1016.41        64.19293
1016.79        62.27449
1017.17         61.4934
1017.55        62.04744
1017.93        63.68708
1018.31         65.6105
1018.69        66.62585
1019.06        66.46795
1019.44        65.32998
1019.82        63.64405
1020.20        62.57134
1020.58        62.56535
1020.95        63.08893
1021.33        63.78092
1021.71        64.07365
1022.09        63.90313
1022.46        63.72478
1022.84         63.3233
1023.22        62.36955
1023.60        61.01238
1023.97        59.16239
1024.35        58.22589
1024.73        59.87355
