SpectraSmart Spectrum 2.9.0.0
--------- Device Information -----------
Spectrum Name :  反射率_0
Saving Time :  2024/04/26 23:20:59
Spectro-Module Model Name : SE2030-DUVN
Spectro-Module Serial Number : OS361AC55029948
Wavelength Start : 200
Wavelength End : 1025
Wavelength Unit : Wavelength(nm)
Spectrum Unit : Reflectance(%)
-----------Spectrum Setting ------------
Integration Time : 20ms
Average : 10
Boxcar : 0
Background removal :  enabled
linearity correction :  enabled
SC :  disabled
Intensity correction :  disabled
DWT denoise :  enabled
savitzky-golay :  disabled
FFT :  disabled
Running average :  disabled
Kalman :  disabled
High pass :  disabled
---------------BEGIN--------------------
Wavelength(nm)             Reflectance(%)
200.29               0
200.75        32.04224
201.21        31.14546
201.67        30.55746
202.13         30.3467
202.58        30.36685
203.04        30.95802
203.50        32.09462
203.96        33.20778
204.42        33.87694
204.88        33.99035
205.34        33.65939
205.80        33.47768
206.26        33.46175
206.72        33.20432
207.18        32.70423
207.64        31.78233
208.10        30.42886
208.55        29.12864
209.01        27.14722
209.47         24.5986
209.93        22.83398
210.39        21.86287
210.85        22.62243
211.31        26.50058
211.77        35.20955
212.23         55.1372
212.69        102.3825
213.14        169.3044
213.60        144.5809
214.06        80.15145
214.52        43.50148
214.98        31.43121
215.44        31.14588
215.90        36.03156
216.36        43.08238
216.81        48.19313
217.27        50.19008
217.73        51.40788
218.19         50.2025
218.65        42.91182
219.11        33.25363
219.57        25.12183
220.02        21.75412
220.48        24.73909
220.94         33.9639
221.40        51.29783
221.86        76.89001
222.32        95.50898
222.77        92.42096
223.23         76.8233
223.69        59.94636
224.15         48.5676
224.61        42.07633
225.06        37.71289
225.52        35.09453
225.98        33.81819
226.44        33.45039
226.90        34.10131
227.36        34.85691
227.81        34.14031
228.27        31.95797
228.73        28.87143
229.19        26.21409
229.65        25.49462
230.10         26.7508
230.56        29.48893
231.02        32.46432
231.48        33.68029
231.93        32.78181
232.39        30.69967
232.85        28.79632
233.31        28.88741
233.77        31.08667
234.22        34.72339
234.68        38.52999
235.14        40.61952
235.60        40.45542
236.05        38.57433
236.51        35.80538
236.97        33.93487
237.43         33.8091
237.88        35.04976
238.34        37.14311
238.80        39.40917
239.26        41.67801
239.71        44.65539
240.17        48.32584
240.63        52.44068
241.08        56.70639
241.54        60.26655
242.00        63.68696
242.46        69.10252
242.91        78.54978
243.37         93.1692
243.83        113.5696
244.28        131.3206
244.74         132.851
245.20        117.7545
245.66        97.46111
246.11        81.91596
246.57        72.02171
247.03        65.01382
247.48        59.80847
247.94        55.69963
248.40        53.17516
248.85         52.3352
249.31        52.61846
249.77        53.15464
250.22        53.68666
250.68        54.07875
251.14        54.79018
251.59        56.81635
252.05        60.09078
252.51         63.8908
252.96        65.64215
253.42        63.64526
253.88        58.84065
254.33        52.55849
254.79        48.11162
255.25        47.98096
255.70        51.70933
256.16        58.03222
256.62        63.87022
257.07        64.63644
257.53        61.26689
257.99         56.4195
258.44        52.25766
258.90        50.77748
259.35        51.05798
259.81        52.36306
260.27        53.40434
260.72        52.72564
261.18         50.6187
261.63        47.67899
262.09          45.089
262.55        43.63274
263.00        43.16843
263.46        43.36583
263.91        43.46857
264.37        42.76398
264.83        41.22463
265.28        39.21525
265.74        37.39601
266.19        36.33487
266.65        36.12945
267.11        36.43438
267.56        36.89396
268.02        36.95336
268.47        36.45606
268.93        35.62382
269.38        34.57901
269.84        33.54763
270.30        32.61158
270.75         31.6864
271.21        30.87707
271.66        30.30775
272.12        29.97831
272.57        29.84336
273.03        29.72025
273.48         29.2965
273.94        28.55684
274.39        27.58394
274.85        26.60978
275.31        25.84827
275.76        25.32906
276.22        24.99843
276.67        24.74447
277.13        24.47109
277.58        24.11259
278.04        23.72699
278.49        23.30589
278.95        22.92517
279.40        22.55878
279.86        22.23329
280.31        21.88509
280.77        21.50626
281.22        21.07595
281.68        20.65299
282.13        20.26838
282.59        20.01957
283.04        19.89279
283.50        19.86604
283.95        19.88026
284.41        19.84513
284.86        19.74044
285.32        19.61873
285.77        19.50139
286.22        19.46463
286.68        19.52221
287.13        19.61417
287.59        19.74573
288.04        19.89201
288.50        20.04996
288.95        20.20371
289.41        20.31798
289.86        20.28926
290.32         20.1477
290.77        19.93109
291.22        19.75518
291.68        19.78057
292.13         20.0396
292.59        20.50541
293.04        21.11455
293.50        21.77411
293.95        22.44385
294.40        23.15553
294.86        23.92672
295.31         24.7791
295.77        25.72076
296.22        26.71812
296.68         27.7729
297.13        28.88227
297.58        30.05291
298.04        31.30137
298.49        32.60048
298.95        33.91807
299.40        35.23945
299.85        36.56821
300.31        37.95808
300.76        39.48148
301.21        41.14109
301.67        42.91228
302.12        44.67136
302.58        46.30244
303.03        47.74794
303.48          49.077
303.94         50.3937
304.39        51.80542
304.84        53.36271
305.30         55.0362
305.75         56.7444
306.20        58.43385
306.66        60.09143
307.11        61.71154
307.57        63.30167
308.02        64.78557
308.47        66.17735
308.93         67.4877
309.38        68.76659
309.83         70.1946
310.29        71.79594
310.74        73.50814
311.19        75.16271
311.65        76.45854
312.10        77.30769
312.55        77.79408
313.00        78.13255
313.46        78.66476
313.91        79.45826
314.36        80.44698
314.82        81.45436
315.27        82.19949
315.72        82.60051
316.18        82.78147
316.63        82.88914
317.08         83.1897
317.53        83.74622
317.99        84.44912
318.44        85.19193
318.89        85.77863
319.35        86.14171
319.80        86.35323
320.25        86.45136
320.70        86.49801
321.16        86.53005
321.61        86.56195
322.06        86.62784
322.51        86.79603
322.97        87.06427
323.42        87.42015
323.87        87.84338
324.32        88.31084
324.78        88.77078
325.23        89.28939
325.68        89.72195
326.13        89.85394
326.59        89.65875
327.04        89.21934
327.49        88.78751
327.94        88.79667
328.39        89.33583
328.85        90.25085
329.30        91.34386
329.75        92.03221
330.20        92.13215
330.66        91.78522
331.11        91.27629
331.56        91.00538
332.01        91.11217
332.46        91.46648
332.92        91.91579
333.37         92.3394
333.82         92.6227
334.27        92.85874
334.72        93.07574
335.17        93.29404
335.63        93.52834
336.08        93.80537
336.53        94.16136
336.98        94.70905
337.43        95.45673
337.88        96.34351
338.34        97.26762
338.79        98.15804
339.24        98.90813
339.69        99.53228
340.14        99.95658
340.59         100.081
341.05        99.95142
341.50        99.62234
341.95        99.29812
342.40        99.28809
342.85        99.66973
343.30        100.3567
343.75        101.2224
344.20        102.0384
344.66        102.7083
345.11        103.2739
345.56        103.7094
346.01        103.9872
346.46        104.1332
346.91        104.1639
347.36        104.1581
347.81        104.2598
348.26        104.4962
348.72         104.813
349.17        105.1862
349.62        105.6017
350.07        106.0244
350.52        106.4741
350.97         106.779
351.42        106.6678
351.87        106.1258
352.32        105.2489
352.77        104.3772
353.22        104.0114
353.67        104.2408
354.13        104.9225
354.58        105.7161
355.03        106.0096
355.48         105.644
355.93        104.7986
356.38        103.8402
356.83        103.3247
357.28        103.3583
357.73         103.739
358.18        104.1292
358.63         103.995
359.08        103.2132
359.53        101.9925
359.98        100.6241
360.43        99.51957
360.88        98.78548
361.33        98.29111
361.78        97.89063
362.23         97.3607
362.68        96.64711
363.13        95.85104
363.58        95.05228
364.03        94.35342
364.48         93.7742
364.93        93.24689
365.38        92.74719
365.83        92.25751
366.28        91.75941
366.73         91.2664
367.18        90.72538
367.63        90.04388
368.08        89.22168
368.53        88.30165
368.98        87.38597
369.43        86.63661
369.88        86.09271
370.33        85.70283
370.78        85.40044
371.23        85.07411
371.68        84.67583
372.13        84.22859
372.58        83.73098
373.03        83.18011
373.48        82.58245
373.93        81.93585
374.38        81.25868
374.83        80.59586
375.28        79.96429
375.72        79.33743
376.17         78.7767
376.62        78.26977
377.07        77.82098
377.52        77.45794
377.97        77.11987
378.42        76.71833
378.87        76.24479
379.32        75.69441
379.77        75.22518
380.22        75.07359
380.67        75.24562
381.11        75.68753
381.56        76.04219
382.01        75.79096
382.46        74.86375
382.91        73.49738
383.36        72.11691
383.81        71.30285
384.26         71.1536
384.71        71.46731
385.15        71.99566
385.60        72.30488
386.05        72.24491
386.50        71.94321
386.95        71.46502
387.40        70.91438
387.85        70.36095
388.29        69.73868
388.74        69.19051
389.19        68.74338
389.64        68.40173
390.09        68.15556
390.54        67.98146
390.98        67.81384
391.43        67.66281
391.88        67.52406
392.33        67.38589
392.78        67.21258
393.23              67
393.67        66.78411
394.12         66.6265
394.57        66.36008
395.02        66.04664
395.47        65.96368
395.91        66.08026
396.36        66.04507
396.81        65.85662
397.26        65.71764
397.71        65.59538
398.15         65.3817
398.60        65.16015
399.05        64.76349
399.50        64.32533
399.95        64.37402
400.39        64.78168
400.84        64.67611
401.29        64.07559
401.74        63.73127
402.18         63.6865
402.63        63.47194
403.08        63.15079
403.53        63.01442
403.97        63.06799
404.42        63.22868
404.87        63.38652
405.32        63.33543
405.76        63.03228
406.21        62.66449
406.66        62.32254
407.11           61.98
407.55        61.79981
408.00        62.07203
408.45        62.66853
408.90        63.12489
409.34        63.20701
409.79        62.73297
410.24        61.95445
410.68        61.55355
411.13        61.62071
411.58        61.79444
412.03        61.93278
412.47        61.95325
412.92         61.7852
413.37        61.49807
413.81        61.20131
414.26        61.10733
414.71        61.23172
415.15         61.5296
415.60          61.887
416.05        62.17412
416.49        62.33805
416.94        62.40626
417.39        62.41646
417.83        62.41689
418.28        62.43264
418.73        62.44213
419.17        62.45544
419.62         62.4962
420.07        62.56057
420.51        62.63074
420.96        62.71052
421.41        62.73817
421.85        62.68432
422.30          62.661
422.74        62.61796
423.19        62.50438
423.64        62.33582
424.08        62.29287
424.53        62.38054
424.98        62.47369
425.42         62.5678
425.87        62.82794
426.31        63.16095
426.76        63.08192
427.21        62.70331
427.65        62.69365
428.10        63.03054
428.54        63.24398
428.99         63.3558
429.44        63.38993
429.88        63.45472
430.33        64.01601
430.77        64.77419
431.22        65.06219
431.66        64.82113
432.11        64.22682
432.56        63.59439
433.00        63.66138
433.45        64.46134
433.89        65.19751
434.34        65.33125
434.78        65.86053
435.23        65.08643
435.67        63.91224
436.12        64.40276
436.57        64.58275
437.01        65.00785
437.46        65.15448
437.90        65.00995
438.35        64.87038
438.79        64.81863
439.24        64.89685
439.68        65.08243
440.13        65.46244
440.57        65.98582
441.02        66.11539
441.46        65.91086
441.91         66.4828
442.35         67.4377
442.80        67.17394
443.24        65.98067
443.69        65.96927
444.13        67.03774
444.58        67.46241
445.02        67.18567
445.47        67.18517
445.91        67.50129
446.36        67.73619
446.80        67.86254
447.24        68.06341
447.69        68.35328
448.13         68.2986
448.58        68.57098
449.02        68.69759
449.47        68.84712
449.91        68.87762
450.36        68.80952
450.80        68.67995
451.25        68.55857
451.69        68.49438
452.13        68.51862
452.58        68.60874
453.02        68.72763
453.47        68.82023
453.91        68.85809
454.36        68.86904
454.80        68.85417
455.24        68.72453
455.69        68.48248
456.13        68.30818
456.58         68.3093
457.02        67.73747
457.46        67.68199
457.91        67.89394
458.35         68.3914
458.79        68.36036
459.24        67.80521
459.68        67.03683
460.13        66.35545
460.57        66.15681
461.01        66.36353
461.46        66.87308
461.90        67.35849
462.34        68.21714
462.79        67.72903
463.23        67.77695
463.68        67.82871
464.12        67.76066
464.56        67.45534
465.01        66.67284
465.45        65.69131
465.89        65.38797
466.34        65.67554
466.78        66.17438
467.22        66.41601
467.67        66.02242
468.11         65.8645
468.55        65.86694
468.99         66.2405
469.44        66.29626
469.88        66.03553
470.32        65.87534
470.77        65.85283
471.21        65.83331
471.65        65.80652
472.10        65.81924
472.54        65.84153
472.98        65.78325
473.42         65.6207
473.87        65.54469
474.31        65.49254
474.75        65.06759
475.20        64.47117
475.64        64.52551
476.08        65.13593
476.52        65.25295
476.97        64.78746
477.41        64.69276
477.85        64.87748
478.29        64.14437
478.74        64.92482
479.18        65.10689
479.62        65.26322
480.06        65.35452
480.50        65.31187
480.95        65.26965
481.39         65.2508
481.83         64.8688
482.27        64.61901
482.72        65.08875
483.16        64.57576
483.60        64.67551
484.04        64.83662
484.48        65.11881
484.93        65.24893
485.37         65.2972
485.81        64.44572
486.25        63.98175
486.69        64.31197
487.14        65.12709
487.58        64.79153
488.02        65.13046
488.46        64.25124
488.90        64.31064
489.34         65.7175
489.79        66.47221
490.23         65.7688
490.67        65.10659
491.11        64.52293
491.55        64.41529
491.99        64.70963
492.43        64.67858
492.88        64.31381
493.32        64.19846
493.76        64.34218
494.20        64.44096
494.64        64.47712
495.08        64.49251
495.52        64.48841
495.96         64.5937
496.41        64.74618
496.85        64.65291
497.29        64.30503
497.73        64.31052
498.17        63.89852
498.61        64.05701
499.05        64.42436
499.49        64.45762
499.93        63.99514
500.37        64.09473
500.82        64.62291
501.26        64.72678
501.70        64.43192
502.14        64.43294
502.58        64.72656
503.02        64.85725
503.46        64.81076
503.90         64.8136
504.34        64.85184
504.78        64.81197
505.22        64.68414
505.66        64.51524
506.10        64.37704
506.54        64.28807
506.98        64.21404
507.42        64.52951
507.86        64.45403
508.30        64.33575
508.74        64.44672
509.18        64.36109
509.62        64.25136
510.06        64.18239
510.50        64.17914
510.94        64.20127
511.38        64.24217
511.82        64.30492
512.26        64.38048
512.70        64.47321
513.14        64.55504
513.58        64.57742
514.02        64.53567
514.46        64.44454
514.90        64.35129
515.34        64.33437
515.78        64.40825
516.22        64.54319
516.66        64.69386
517.10        64.78532
517.54         64.7939
517.98        64.74786
518.42        64.66183
518.86        64.54407
519.30        64.40872
519.74        64.29948
520.18        64.24332
520.62        64.17142
521.06        64.14368
521.50        64.40186
521.93         64.8428
522.37        65.04955
522.81         64.9789
523.25        64.81314
523.69        64.65853
524.13        64.62294
524.57        64.73273
525.01        64.93436
525.45        65.13047
525.89        65.16638
526.32        65.00653
526.76        64.73959
527.20        64.41836
527.64        64.15105
528.08         63.9845
528.52        63.81651
528.96        63.70356
529.40        63.90115
529.83        64.31786
530.27        64.55311
530.71        64.56431
531.15        64.61916
531.59        64.70689
532.03         64.6302
532.46         64.4236
532.90        64.29498
533.34         64.2644
533.78        64.24559
534.22        64.21177
534.66        64.19902
535.09        64.15157
535.53        63.94459
535.97        63.63618
536.41        63.47624
536.85        63.49245
537.28        63.55899
537.72        63.65368
538.16        63.78968
538.60        63.94467
539.04        64.10667
539.47        64.23917
539.91        64.33083
540.35        64.36161
540.79        64.33574
541.22        64.26659
541.66        64.20082
542.10        64.14574
542.54        64.09679
542.97        64.03957
543.41           63.98
543.85        63.91154
544.29        63.84777
544.72        63.78848
545.16         63.7695
545.60        63.78641
546.04        63.83622
546.47        63.91656
546.91        64.04028
547.35        64.19861
547.79        64.31438
548.22        64.37587
548.66        64.51939
549.10        64.72851
549.53        64.60176
549.97        64.23314
550.41        63.97164
550.84         63.9271
551.28        64.03742
551.72        64.19363
552.15        64.33036
552.59        64.48708
553.03        63.91144
553.46        64.26513
553.90        64.14977
554.34        64.05516
554.77        63.97526
555.21        63.95697
555.65        64.02991
556.08        64.16647
556.52        64.32147
556.96        64.43325
557.39         64.5572
557.83        64.62732
558.27        64.38389
558.70        63.80827
559.14        63.59263
559.57         63.6991
560.01        63.72808
560.45        63.68372
560.88        63.84929
561.32         64.1854
561.75        64.41964
562.19        64.51282
562.63        64.42059
563.06        64.22722
563.50         64.1977
563.93        64.27892
564.37        64.40531
564.80        64.52351
565.24         64.3233
565.68        63.74961
566.11        64.31328
566.55        63.72711
566.98        63.66184
567.42         63.5541
567.85        63.73475
568.29        64.15356
568.72        64.52192
569.16        64.86673
569.60        64.93111
570.03        64.89046
570.47         64.9476
570.90        65.29198
571.34        64.14955
571.77        64.61123
572.21        65.10867
572.64        64.73315
573.08        65.14348
573.51        64.46712
573.95        64.37387
574.38        64.59397
574.82        64.82896
575.25        64.40514
575.69        64.50833
576.12        64.57654
576.56        63.98685
576.99        64.06525
577.42        64.31425
577.86        64.18688
578.29        65.09219
578.73        64.72789
579.16        64.74992
579.60        64.32078
580.03        64.47455
580.47        64.38927
580.90        64.98614
581.33        64.96675
581.77        65.28935
582.20         64.5146
582.64         64.7709
583.07        64.48085
583.51        64.49517
583.94         64.6222
584.37        64.79153
584.81        64.96027
585.24        64.88589
585.68        64.66783
586.11        64.50921
586.54         64.6268
586.98        64.07386
587.41         63.9346
587.85        64.02017
588.28        63.70685
588.71        64.10658
589.15        63.59756
589.58        64.18138
590.01         63.9136
590.45        64.23796
590.88        64.98049
591.31        64.91307
591.75        64.31882
592.18        63.91927
592.61        63.87431
593.05        64.50593
593.48        65.06628
593.91        64.73147
594.35        64.44184
594.78        63.90102
595.21         63.8133
595.65         64.1143
596.08        64.92091
596.51        65.02558
596.94        64.60059
597.38        64.44155
597.81        64.58841
598.24        65.03998
598.68        64.86572
599.11        64.36703
599.54        65.54508
599.97        64.79579
600.41        64.62075
600.84        63.98721
601.27         64.3662
601.70        64.54857
602.14        64.62917
602.57        64.60083
603.00        64.55674
603.43        64.03792
603.87        64.63527
604.30        64.69968
604.73        64.74927
605.16        64.24091
605.60         64.2858
606.03        63.96162
606.46        63.61587
606.89        63.87529
607.32        64.54542
607.76        64.29739
608.19        64.36459
608.62        64.68159
609.05        64.41549
609.48        64.36575
609.92        64.97652
610.35        64.80273
610.78        64.50753
611.21         64.1014
611.64         64.3224
612.07        64.53703
612.50        64.54172
612.94        64.55141
613.37        64.40326
613.80        64.51554
614.23        63.78557
614.66         63.8664
615.09         64.3363
615.52        64.53605
615.96        64.39994
616.39        64.41589
616.82        64.60719
617.25        64.47046
617.68        64.26951
618.11        64.40509
618.54        64.55253
618.97        64.65649
619.40        64.60484
619.84        64.38506
620.27        64.23083
620.70         64.2734
621.13        64.47802
621.56         64.1256
621.99        63.54254
622.42        63.29462
622.85        63.49727
623.28        63.53862
623.71        63.66623
624.14        63.72865
624.57        64.01313
625.00        64.07237
625.43        64.01679
625.86        63.98059
626.29        64.09319
626.72        63.43062
627.15        63.88043
627.58        63.86548
628.01        63.85393
628.44        63.93008
628.87        64.14247
629.30        63.67749
629.73         63.5792
630.16         64.0274
630.59        63.74296
631.02         63.9015
631.45        64.01711
631.88        64.11919
632.31        64.16606
632.74        64.20076
633.17        64.23708
633.60        64.07953
634.03        64.02999
634.46        63.86507
634.89        63.70195
635.32        63.55318
635.75        63.51304
636.18         63.4383
636.61        63.37018
637.04         63.3833
637.47        63.47532
637.89        63.61683
638.32        63.73206
638.75         63.7602
639.18        63.68492
639.61         63.5269
640.04        63.35322
640.47        63.27188
640.90        63.31104
641.33        63.44476
641.76        63.61749
642.18        63.74294
642.61        63.77169
643.04        63.73126
643.47        63.67076
643.90         63.6697
644.33        63.74229
644.76        63.86279
645.18        63.96308
645.61        63.91719
646.04        63.71622
646.47         63.4151
646.90        63.11573
647.33        62.96504
647.75        62.97226
648.18         63.1521
648.61        63.46178
649.04         63.5598
649.47         63.3488
649.89         63.9497
650.32        63.64961
650.75        63.51569
651.18        63.19061
651.61         63.2794
652.03        63.74253
652.46        63.98855
652.89        63.90874
653.32        63.74199
653.74        63.72608
654.17        63.06278
654.60         63.9999
655.03        64.06512
655.46        63.06394
655.88        62.84836
656.31        64.69725
656.74        64.75201
657.16        64.91714
657.59        66.04329
658.02        64.11588
658.45        64.45465
658.87        63.63311
659.30        63.86035
659.73        63.76693
660.15        64.43375
660.58        63.39951
661.01        63.35551
661.44         63.6446
661.86        63.46394
662.29         62.8489
662.72        63.25034
663.14        63.39003
663.57        63.41812
664.00        63.08856
664.42        63.06247
664.85        63.33654
665.27         64.0436
665.70        64.12612
666.13        64.25723
666.55        64.14034
666.98        63.75445
667.41        63.21712
667.83        63.14899
668.26        62.95844
668.69        63.10365
669.11        63.32902
669.54        63.53012
669.96        63.66754
670.39        63.77654
670.82        63.85171
671.24        63.86138
671.67        63.80878
672.09        63.65556
672.52        63.48655
672.94        63.46031
673.37        63.57214
673.80        63.65198
674.22        63.67154
674.65        63.67138
675.07        63.65429
675.50        63.55431
675.92        63.41806
676.35        63.34806
676.77        63.36271
677.20        63.42171
677.62        63.49671
678.05        63.54411
678.47        63.54585
678.90        63.52607
679.32        63.48176
679.75        63.41776
680.17        63.34125
680.60        63.25716
681.02        63.19408
681.45        63.20466
681.87        63.30822
682.30        63.44248
682.72        63.59053
683.15        63.76382
683.57        63.91699
684.00        63.86747
684.42        63.67802
684.85        63.62498
685.27        63.72533
685.70         63.8464
686.12        63.93936
686.54        63.99748
686.97        64.00366
687.39        63.97445
687.82        63.91336
688.24        63.85377
688.66        63.80724
689.09        63.73139
689.51        63.66383
689.94        63.71933
690.36         63.8679
690.78        63.89488
691.21        63.82203
691.63        63.84205
692.06        63.96162
692.48        64.07851
692.90        64.13418
693.33        64.09254
693.75        63.94442
694.17        63.67687
694.60        63.40944
695.02        63.34814
695.44         63.5029
695.87        63.81285
696.29        64.14138
696.71        64.10554
697.14        63.77484
697.56        63.61757
697.98        63.67553
698.41        63.84663
698.83        63.74134
699.25        63.92349
699.68        64.18134
700.10        64.29343
700.52        64.20269
700.94        63.99734
701.37        63.78183
701.79        63.71792
702.21        63.83837
702.64        64.07207
703.06        64.33987
703.48        64.49954
703.90        64.50493
704.33        64.39786
704.75        64.22414
705.17        64.04723
705.59         63.9058
706.01         63.7923
706.44        63.70912
706.86        63.69423
707.28        63.74307
707.70        63.80398
708.12        63.90074
708.55        64.14946
708.97        64.49252
709.39        64.68063
709.81        64.67817
710.23        64.66397
710.66        64.63628
711.08        64.47957
711.50        64.23657
711.92        64.06364
712.34        63.99227
712.76        63.99884
713.19        64.03125
713.61        64.03342
714.03        63.97964
714.45        63.90418
714.87        63.87467
715.29         63.9926
715.71        64.26601
716.13        64.63837
716.56        65.00608
716.98         65.2849
717.40        65.39342
717.82        65.36272
718.24        65.20728
718.66        64.95691
719.08        64.66117
719.50        64.33254
719.92        64.03242
720.34        63.89445
720.76          63.949
721.19        63.96116
721.61        64.26754
722.03        64.56322
722.45          64.901
722.87        65.25861
723.29        65.53305
723.71        65.55875
724.13        65.31163
724.55        64.85744
724.97        64.34957
725.39        64.00396
725.81        63.88691
726.23         64.0037
726.65        64.29881
727.07        64.38024
727.49        64.66163
727.91        64.80106
728.33        64.94542
728.75        65.09574
729.17        65.25135
729.59        65.37575
730.01        65.43224
730.43        65.42066
730.85        65.34314
731.27        65.16277
731.69        64.90635
732.10        64.86179
732.52        64.64851
732.94        64.58958
733.36        64.56779
733.78        64.48225
734.20        64.32151
734.62        64.28824
735.04        64.60465
735.46        64.14272
735.88        64.85059
736.30        65.04493
736.72        65.27417
737.13        65.69281
737.55        66.10905
737.97        66.12579
738.39        65.74658
738.81        65.17878
739.23        64.65486
739.65        64.74126
740.06        65.30453
740.48        65.59561
740.90        65.53991
741.32        65.61568
741.74        65.83481
742.16        65.95158
742.57        65.95705
742.99        65.90672
743.41         65.8166
743.83        65.69546
744.25        65.55969
744.67        65.39832
745.08        65.28287
745.50        65.30315
745.92        65.47656
746.34        65.77007
746.75         66.0687
747.17        66.17293
747.59        66.04969
748.01         65.7578
748.42        65.42097
748.84        65.25955
749.26        65.32678
749.68        65.49766
750.09        65.68791
750.51        65.88519
750.93        65.98902
751.35        65.79537
751.76        65.38039
752.18        65.10212
752.60        64.99657
753.01        64.89078
753.43        64.78455
753.85         64.7519
754.27        64.79132
754.68        64.99229
755.10         65.2705
755.52        65.26244
755.93        65.02771
756.35        65.07883
756.77        65.45158
757.18        65.59154
757.60        65.46135
758.02        65.72926
758.43        66.30122
758.85         65.4551
759.26        65.19836
759.68        64.82483
760.10        64.96033
760.51        65.25903
760.93        65.63003
761.34         65.7131
761.76          65.966
762.18        66.05085
762.59         66.1654
763.01        66.26254
763.42         66.3923
763.84        66.38463
764.26        66.24943
764.67        66.19045
765.09        66.20592
765.50        65.86427
765.92        65.35249
766.33        65.32301
766.75        65.67885
767.16         65.8465
767.58        65.72662
768.00        65.61391
768.41        65.62472
768.83        65.88656
769.24        66.26518
769.66        66.42719
770.07        66.31262
770.49        65.81783
770.90        65.21897
771.32        65.51728
771.73        66.52788
772.15        66.86562
772.56         66.4475
772.97        66.04122
773.39        65.83006
773.80        65.76601
774.22        65.87942
774.63        66.22276
775.05        66.61048
775.46        66.81138
775.88        66.73257
776.29        66.46427
776.70        66.14035
777.12        66.00392
777.53        66.12471
777.95        66.38673
778.36         66.6927
778.77        66.83901
779.19        66.78696
779.60        66.64225
780.02        66.44672
780.43        66.28598
780.84        66.23059
781.26        66.09615
781.67        65.98569
782.09        66.45168
782.50        67.26296
782.91         67.3483
783.33        66.74706
783.74        66.47009
784.15         66.5563
784.57        66.48798
784.98        66.30169
785.39        66.12562
785.81        66.08413
786.22        66.56812
786.63        67.39499
787.04        67.83683
787.46        67.80854
787.87        67.63091
788.28        67.45544
788.70        67.31355
789.11        67.22097
789.52        67.36817
789.93        67.62161
790.35        67.32159
790.76        66.64671
791.17        66.64314
791.58        67.25739
792.00        67.45672
792.41        67.19725
792.82        67.17945
793.23        67.38503
793.65        67.19801
794.06        66.77112
794.47        66.89103
794.88        67.43954
795.29        67.64086
795.71        67.42516
796.12        67.28079
796.53        67.27876
796.94        67.25182
797.35        67.26472
797.76        67.56501
798.18        68.03057
798.59        68.29553
799.00        68.28342
799.41        68.16357
799.82         68.0236
800.23        67.95137
800.64        67.97919
801.06        68.04578
801.47        68.12698
801.88         68.0918
802.29        67.91259
802.70        67.64285
803.11        67.34176
803.52        67.09824
803.93        66.96395
804.34        66.92463
804.75        66.98762
805.17        67.20367
805.58        67.59744
805.99        67.94759
806.40        68.22339
806.81        68.79173
807.22        69.41755
807.63        69.15864
808.04        68.19231
808.45        67.65672
808.86         67.6736
809.27        67.66269
809.68        67.54813
810.09        67.47093
810.50        67.41392
810.91        67.35344
811.32        67.34643
811.73        67.47288
812.14         67.7345
812.55        68.09321
812.96        68.44273
813.37        68.58819
813.78        68.47571
814.19        68.18027
814.60        67.80061
815.01         67.4677
815.42         67.2215
815.83        67.02676
816.24        66.90521
816.65        66.89541
817.05        67.00731
817.46        67.21342
817.87         67.4571
818.28        67.59684
818.69        67.60223
819.10        67.48868
819.51        67.36059
819.92        67.41487
820.33        67.69004
820.74        68.11366
821.14        68.53603
821.55        68.71577
821.96        68.59991
822.37        68.26805
822.78        67.85065
823.19        67.56874
823.60        67.49812
824.00        67.59984
824.41        67.76057
824.82        67.88984
825.23          67.935
825.64        67.92983
826.04        67.89811
826.45        67.83091
826.86        67.75544
827.27        67.68575
827.68        67.61209
828.08        67.55133
828.49        67.46526
828.90        67.36287
829.31        67.34407
829.72        67.57104
830.12        68.07608
830.53        68.74656
830.94        69.35507
831.35        69.46958
831.75        69.01083
832.16        68.09856
832.57        67.05719
832.97        66.38364
833.38        66.22086
833.79        66.41503
834.20        66.81077
834.60        67.14966
835.01        67.34275
835.42        67.51365
835.82        67.65655
836.23        67.67595
836.64        67.59987
837.04        67.39383
837.45        67.23869
837.86        67.51076
838.26        68.28234
838.67        69.40499
839.08        70.49395
839.48        70.81357
839.89        70.18786
840.29        68.89306
840.70        67.51617
841.11        66.72444
841.51        66.69334
841.92        67.20268
842.33        68.03004
842.73        68.77227
843.14        69.15627
843.54        69.34772
843.95        69.40248
844.35        69.46584
844.76        69.56325
845.17        69.62077
845.57        69.60331
845.98        69.45171
846.38        69.18422
846.79        68.83593
847.19        68.48662
847.60        68.22372
848.00        68.08826
848.41        68.04379
848.81        68.06611
849.22        68.02808
849.62         67.9416
850.03        67.82746
850.43        67.75323
850.84        67.76177
851.24        67.90738
851.65        68.10161
852.05        68.39061
852.46        68.74173
852.86        69.11134
853.27        69.47932
853.67         69.6992
854.07        69.68732
854.48         69.4166
854.88        68.95357
855.29        68.34931
855.69        67.84119
856.10        67.45769
856.50        67.22977
856.90        67.12679
857.31        67.09797
857.71        67.16928
858.12        67.30251
858.52        67.48715
858.92        67.58845
859.33        67.55521
859.73        67.44182
860.13        67.27341
860.54        67.13206
860.94        67.08617
861.34        67.09879
861.75        67.14156
862.15        67.20969
862.55        67.27218
862.96        67.30035
863.36         67.3392
863.76        67.37978
864.17        67.40232
864.57        67.42993
864.97        67.37782
865.38        67.12604
865.78        66.69597
866.18        66.13404
866.58          65.595
866.99        65.34609
867.39        65.48785
867.79        65.93613
868.19        66.54702
868.60         67.0773
869.00        67.47558
869.40        67.76139
869.80        67.97866
870.21        68.20551
870.61        68.50432
871.01        68.78269
871.41        68.90405
871.81        68.69169
872.22        68.13344
872.62        67.29058
873.02        66.42797
873.42        65.98934
873.82        66.08769
874.22        66.60148
874.63        67.20401
875.03        67.37893
875.43        66.99854
875.83        66.24322
876.23        65.41035
876.63        64.96007
877.03         65.0097
877.44        65.37138
877.84        65.88351
878.24        66.28877
878.64        66.43508
879.04        66.27812
879.44         65.9561
879.84         65.7774
880.24        65.78757
880.64        65.85366
881.04        65.85081
881.44         65.6239
881.84        65.15807
882.24        64.54263
882.65        63.97018
883.05        63.71667
883.45        63.84845
883.85        64.28362
884.25        64.86162
884.65        65.30294
885.05        65.50846
885.45        65.54511
885.85        65.50285
886.25        65.52847
886.65        65.66588
887.05        65.86077
887.45        66.05325
887.85        66.15856
888.25        66.14307
888.65        66.02575
889.04        65.86336
889.44        65.76604
889.84        65.74228
890.24        65.77451
890.64        65.76177
891.04        65.54239
891.44        65.11508
891.84        64.56959
892.24        64.08479
892.64        63.91426
893.04        64.11328
893.44        64.60848
893.83         65.2763
894.23        65.85355
894.63        66.26143
895.03        66.52551
895.43         66.7129
895.83         66.9529
896.23        67.25482
896.63        67.54016
897.02         67.6755
897.42        67.49335
897.82        66.98186
898.22        66.26368
898.62        65.49218
899.01        64.86619
899.41        64.47704
899.81         64.2747
900.21        64.25606
900.61        64.40661
901.00        64.68871
901.40        65.08033
901.80        65.49854
902.20        65.80638
902.59        65.97124
902.99        66.00887
903.39        65.93845
903.79        65.80861
904.18        65.63885
904.58        65.41686
904.98        65.23705
905.38        65.24861
905.77        65.47227
906.17        65.90318
906.57        66.33212
906.96        66.40221
907.36        66.03771
907.76        65.36165
908.15        64.72552
908.55        64.66959
908.95        65.30282
909.34         66.4415
909.74        67.65849
910.14        68.33582
910.53        68.26224
910.93        67.65447
911.33        66.73448
911.72        65.83678
912.12        65.17075
912.52        64.66295
912.91        64.32448
913.31        64.19041
913.70        64.25133
914.10         64.4837
914.49        64.92283
914.89        65.51288
915.29        66.21436
915.68        67.00746
916.08        67.64057
916.47        67.79298
916.87        67.43029
917.26        66.62959
917.66        65.78738
918.05        65.36904
918.45        65.48328
918.84        66.05423
919.24         66.7529
919.64        67.11824
920.03        67.02849
920.42        66.59701
920.82        66.14487
921.21        66.11478
921.61        66.58324
922.00        67.42537
922.40        68.30671
922.79        68.79064
923.19        68.70449
923.58        68.22694
923.98        67.59658
924.37        67.09068
924.77        66.82105
925.16        66.67127
925.55        66.61759
925.95        66.60772
926.34        66.62225
926.74         66.6641
927.13        66.67239
927.52        66.46584
927.92        66.07545
928.31         65.5602
928.70        65.05042
929.10        64.72256
929.49        64.60905
929.89        64.58796
930.28        64.76755
930.67         65.2198
931.07        65.87935
931.46        66.79018
931.85        67.53786
932.24        67.49439
932.64        66.62782
933.03          65.135
933.42        63.67569
933.82        63.21969
934.21        63.95768
934.60        65.63082
934.99        67.65707
935.39         68.9636
935.78        69.22852
936.17        68.66019
936.56        67.66953
936.96        66.91591
937.35        66.60522
937.74        66.53507
938.13        66.48154
938.53        66.13651
938.92        65.46108
939.31        64.66075
939.70        63.94934
940.09        63.57785
940.49        63.57561
940.88        63.86172
941.27        64.37051
941.66        64.97407
942.05        65.58057
942.44        66.21251
942.84        66.75009
943.23        67.01058
943.62        66.97034
944.01        66.62307
944.40         66.1892
944.79        66.05995
945.18        66.31276
945.57        66.85798
945.97        67.33823
946.36        67.23628
946.75        66.42468
947.14        65.16444
947.53        63.88726
947.92        63.19278
948.31        63.21901
948.70        63.78083
949.09        64.64617
949.48        65.41035
949.87        65.90363
950.26        66.21542
950.65        66.40197
951.04        66.57032
951.43        66.74829
951.82        66.85673
952.21          66.857
952.60        66.71826
952.99        66.46439
953.38        66.17395
953.77        65.89781
954.16        65.69571
954.55        65.57824
954.94        65.48461
955.33        65.48016
955.72        65.67043
956.11        66.04368
956.50        66.59235
956.89        66.99484
957.28         66.7197
957.66        65.70294
958.05        64.18505
958.44        62.72564
958.83        62.12955
959.22        62.53528
959.61        63.71162
960.00        65.17295
960.39        65.99377
960.78        65.86914
961.16        65.08205
961.55         64.0813
961.94         63.4455
962.33        63.35001
962.72        63.63241
963.11        64.13432
963.49        64.60027
963.88        64.82092
964.27        64.86425
964.66        64.89239
965.04        65.16545
965.43        65.67018
965.82         66.3736
966.21         66.8663
966.60        66.43069
966.98        64.96444
967.37        62.85921
967.76         60.8798
968.15        59.96077
968.53        60.24739
968.92        61.50541
969.31        63.16425
969.69        64.06067
970.08        63.72442
970.47        62.53576
970.86        61.20173
971.24         60.7226
971.63        61.32418
972.02        62.72903
972.40        64.42915
972.79        65.18203
973.17         64.6719
973.56        63.33174
973.95        61.87559
974.33         61.2192
974.72        61.55592
975.11        62.58188
975.49        63.89701
975.88        64.66803
976.26        64.64777
976.65        64.06776
977.04        63.26525
977.42        62.71514
977.81        62.54265
978.19        62.57887
978.58        62.84097
978.96        63.33258
979.35        63.97232
979.74        64.78091
980.12         65.6277
980.51         66.0219
980.89        65.96932
981.28        65.57238
981.66          65.054
982.05        64.72552
982.43        64.69116
982.82        64.82851
983.20        65.26974
983.59        66.13235
983.97        67.43887
984.35        69.09748
984.74        70.55548
985.12        71.12261
985.51        70.58447
985.89        69.20836
986.28        67.60031
986.66        66.60828
987.04        66.51103
987.43         67.0106
987.81         67.8836
988.20        68.54525
988.58        68.75778
988.96        68.62679
989.35        68.14651
989.73        67.27199
990.12        66.04163
990.50        64.50161
990.88        62.80638
991.27        61.35251
991.65        60.34834
992.03        59.74404
992.42        59.59367
992.80        59.88897
993.18         60.5926
993.56         61.7239
993.95        62.90003
994.33        63.56827
994.71        63.46184
995.10        62.81073
995.48        62.04204
995.86        61.94048
996.24        62.67505
996.63        63.85108
997.01        65.37046
997.39        66.63297
997.77        67.27613
998.15         67.5612
998.54        67.18993
998.92        65.58963
999.30         62.9887
999.68        59.71121
1000.06        56.85405
1000.45        55.95508
1000.83        57.38322
1001.21        60.80681
1001.59        65.33189
1001.97        68.61691
1002.35        69.58535
1002.73        68.87749
1003.12        67.35889
1003.50        66.11072
1003.88        65.57399
1004.26        65.19244
1004.64         65.2124
1005.02        66.15519
1005.40        67.97279
1005.78         70.6909
1006.16        73.01537
1006.54        72.83573
1006.92         69.9985
1007.30        65.29092
1007.69        60.61969
1008.07        58.56364
1008.45        59.85353
1008.83        63.88891
1009.21        69.39501
1009.59        73.11239
1009.97        73.39224
1010.35        71.17336
1010.73        67.61977
1011.11        64.43262
1011.49        62.28848
1011.86        60.74325
1012.24        59.86012
1012.62        59.76003
1013.00        60.38001
1013.38        61.78527
1013.76        63.84605
1014.14        65.88206
1014.52          67.364
1014.90        68.23371
1015.28        68.30153
1015.66        67.50939
1016.04        65.96329
1016.41        63.65614
1016.79        61.14067
1017.17        59.58035
1017.55        59.31079
1017.93        60.06504
1018.31        61.13827
1018.69        61.40691
1019.06        60.63333
1019.44        59.14497
1019.82        57.35569
1020.20        56.34451
1020.58        56.53621
1020.95         57.2711
1021.33        58.45382
1021.71        60.01352
1022.09        61.93578
1022.46        64.65617
1022.84        67.14165
1023.22         66.9321
1023.60        63.45349
1023.97        57.52012
1024.35        52.19358
1024.73        50.92888
