SpectraSmart Spectrum 2.9.0.0
--------- Device Information -----------
Spectrum Name :  反射率_0
Saving Time :  2024/04/26 23:19:38
Spectro-Module Model Name : SE2030-DUVN
Spectro-Module Serial Number : OS361AC55029948
Wavelength Start : 200
Wavelength End : 1025
Wavelength Unit : Wavelength(nm)
Spectrum Unit : Reflectance(%)
-----------Spectrum Setting ------------
Integration Time : 20ms
Average : 10
Boxcar : 0
Background removal :  enabled
linearity correction :  enabled
SC :  disabled
Intensity correction :  disabled
DWT denoise :  enabled
savitzky-golay :  disabled
FFT :  disabled
Running average :  disabled
Kalman :  disabled
High pass :  disabled
---------------BEGIN--------------------
Wavelength(nm)             Reflectance(%)
200.29               0
200.75        55.20306
201.21        51.34244
201.67        48.47682
202.13        46.33191
202.58        44.51236
203.04        43.28054
203.50        42.83505
203.96        43.52645
204.42        45.70936
204.88        49.26745
205.34        53.67342
205.80        58.03829
206.26        61.32938
206.72        62.70405
207.18        62.88198
207.64        62.89902
208.10        63.03426
208.55        64.06371
209.01        63.85698
209.47        58.46978
209.93        49.99462
210.39        42.85228
210.85        39.57504
211.31        41.16831
211.77        48.42904
212.23        66.53696
212.69        113.3769
213.14        195.0754
213.60        196.8009
214.06        143.3864
214.52        104.3372
214.98        83.19875
215.44        69.61188
215.90        57.05408
216.36        46.91672
216.81        42.97252
217.27          46.772
217.73        60.19121
218.19        80.96119
218.65         89.9987
219.11        79.66456
219.57        62.50532
220.02        50.46331
220.48        49.33113
220.94        57.97277
221.40        76.25672
221.86        103.8435
222.32        123.6112
222.77        119.1337
223.23        101.6586
223.69        82.49822
224.15        67.82983
224.61        57.60406
225.06        49.59848
225.52        44.38753
225.98        42.50241
226.44        43.36012
226.90        46.46087
227.36        50.30015
227.81        52.18569
228.27        51.60672
228.73        49.30964
229.19        46.82709
229.65        45.97815
230.10        46.86224
230.56        48.86846
231.02        50.73111
231.48        50.53765
231.93        48.10804
232.39        44.63816
232.85        41.49524
233.31        40.41566
233.77        41.51444
234.22        44.12573
234.68        47.22987
235.14        49.34216
235.60        50.00233
236.05        49.69509
236.51        48.79283
236.97        48.12363
237.43        48.13923
237.88        48.61472
238.34         49.6124
238.80        51.58277
239.26        54.77924
239.71        59.86623
240.17          66.512
240.63        73.25197
241.08        78.88099
241.54        82.54698
242.00        85.27251
242.46        90.29829
242.91         100.521
243.37        117.0736
243.83        141.5494
244.28        166.4163
244.74         176.116
245.20        167.4446
245.66        150.7624
246.11        137.2327
246.57         128.619
247.03        122.0665
247.48         114.601
247.94        103.7184
248.40        92.48444
248.85        83.53561
249.31        77.96574
249.77        75.04996
250.22        73.80225
250.68        73.67413
251.14        74.64127
251.59        76.40473
252.05        78.59203
252.51        81.22008
252.96        82.63785
253.42        82.15834
253.88        80.07357
254.33        76.49697
254.79        74.23936
255.25        75.27666
255.70         79.1544
256.16        85.14897
256.62        89.78735
257.07        88.18257
257.53        82.25009
257.99        75.15332
258.44        69.63494
258.90        68.22535
259.35        69.51847
259.81        72.40935
260.27        74.92784
260.72        74.72968
261.18        72.20251
261.63        68.32933
262.09        64.81184
262.55        62.80074
263.00        62.14516
263.46        62.37264
263.91        62.56386
264.37         61.9512
264.83        60.41942
265.28        58.32827
265.74         56.3613
266.19          54.992
266.65        54.34985
267.11        54.11808
267.56        53.93781
268.02        53.28287
268.47        52.04375
268.93         50.4623
269.38        48.80812
269.84        47.53632
270.30        46.72496
270.75        46.19305
271.21        45.79263
271.66        45.24182
272.12        44.46395
272.57        43.52995
273.03        42.48342
273.48        41.37725
273.94        40.31872
274.39        39.26909
274.85        38.34474
275.31        37.56269
275.76         36.8964
276.22        36.37116
276.67        35.91576
277.13        35.52307
277.58        35.11217
278.04        34.69143
278.49        34.18641
278.95        33.61725
279.40        32.94435
279.86         32.2658
280.31         31.5287
280.77        30.76666
281.22         29.9761
281.68        29.23187
282.13        28.61217
282.59        28.30793
283.04        28.28785
283.50         28.4973
283.95        28.76998
284.41        28.85027
284.86        28.67522
285.32         28.3588
285.77        28.00013
286.22        27.80692
286.68        27.82394
287.13        27.94155
287.59        28.13354
288.04        28.31551
288.50        28.47196
288.95        28.60075
289.41        28.68279
289.86        28.61482
290.32        28.44049
290.77        28.18929
291.22        27.97995
291.68        27.97631
292.13        28.21005
292.59         28.6601
293.04        29.27826
293.50        29.99882
293.95        30.78256
294.40        31.65621
294.86        32.61082
295.31        33.61935
295.77        34.68824
296.22        35.80296
296.68        36.99847
297.13        38.31959
297.58        39.78223
298.04        41.37196
298.49         43.0463
298.95        44.75755
299.40        46.46427
299.85        48.16605
300.31        49.87365
300.76        51.58474
301.21        53.31108
301.67        55.07823
302.12        56.82752
302.58        58.55788
303.03        60.23598
303.48        61.90033
303.94        63.65131
304.39         65.5708
304.84        67.68722
305.30        69.96462
305.75        72.24537
306.20        74.37844
306.66        76.33674
307.11        78.13136
307.57        79.84422
308.02        81.49523
308.47        83.13245
308.93        84.74413
309.38         86.3419
309.83        88.06536
310.29        89.93311
310.74        91.90907
311.19        93.83852
311.65        95.42937
312.10        96.59271
312.55        97.39822
313.00        98.07536
313.46        98.99834
313.91        100.2295
314.36        101.6928
314.82        103.1618
315.27        104.2785
315.72        104.9322
316.18        105.2678
316.63        105.4716
317.08        105.8876
317.53        106.6047
317.99        107.4989
318.44        108.4354
318.89        109.1626
319.35         109.602
319.80        109.8481
320.25        109.9882
320.70         110.159
321.16        110.4094
321.61        110.7355
322.06        111.1031
322.51        111.4717
322.97         111.807
323.42        112.1253
323.87        112.4757
324.32        112.9586
324.78        113.5396
325.23        114.2591
325.68        114.8819
326.13        115.0449
326.59        114.6902
327.04        113.9736
327.49        113.2295
327.94        113.0184
328.39        113.4739
328.85        114.3991
329.30        115.6147
329.75        116.5104
330.20        116.8746
330.66        116.8388
331.11        116.6511
331.56        116.6377
332.01        116.9161
332.46         117.354
332.92        117.8017
333.37        118.1973
333.82        118.4381
334.27         118.625
334.72        118.7967
335.17        118.9824
335.63        119.2068
336.08        119.5212
336.53        119.9839
336.98        120.7467
337.43        121.8095
337.88        123.0716
338.34        124.3713
338.79        125.5698
339.24        126.5142
339.69        127.2441
340.14        127.6553
340.59        127.6111
341.05        127.1886
341.50        126.4662
341.95        125.7972
342.40        125.7144
342.85        126.3286
343.30        127.4852
343.75        128.8847
344.20        130.0024
344.66        130.6631
345.11        131.0004
345.56         131.113
346.01        131.1781
346.46        131.2867
346.91         131.384
347.36        131.5081
347.81        131.7484
348.26        132.0946
348.72        132.5028
349.17        132.9249
349.62        133.3071
350.07        133.6129
350.52        133.8891
350.97        133.9616
351.42        133.5645
351.87        132.7133
352.32        131.5158
352.77        130.4154
353.22        130.0596
353.67        130.5429
354.13        131.6642
354.58        132.9223
355.03        133.4202
355.48        132.9255
355.93        131.7021
356.38        130.2697
356.83         129.421
357.28        129.3243
357.73        129.7023
358.18        130.1392
358.63        129.9763
359.08        129.0474
359.53         127.606
359.98        125.9773
360.43        124.6107
360.88        123.6274
361.33        122.8867
361.78        122.2208
362.23        121.3821
362.68        120.3197
363.13         119.146
363.58        118.0028
364.03        117.0794
364.48        116.4067
364.93        115.8974
365.38        115.4253
365.83        114.8075
366.28         113.996
366.73         113.051
367.18         112.057
367.63        111.1402
368.08        110.3357
368.53        109.6059
368.98        108.9031
369.43        108.1483
369.88        107.3268
370.33          106.48
370.78        105.6516
371.23        104.9161
371.68        104.2938
372.13        103.7411
372.58        103.2466
373.03        102.7929
373.48        102.3462
373.93        101.8989
374.38        101.3631
374.83        100.6103
375.28        99.63593
375.72        98.47449
376.17        97.32381
376.62        96.36088
377.07        95.64799
377.52        95.16495
377.97         94.8154
378.42        94.44878
378.87         94.0184
379.32        93.52511
379.77        93.10603
380.22        92.96303
380.67        93.09293
381.11        93.45267
381.56        93.66397
382.01        93.20924
382.46        92.04694
382.91        90.43785
383.36        88.87501
383.81        88.03036
384.26         88.0022
384.71        88.54287
385.15        89.33665
385.60        89.82407
386.05        89.81255
386.50        89.46963
386.95        88.85168
387.40        88.05986
387.85         87.1937
388.29        86.18643
388.74        85.30833
389.19        84.71716
389.64        84.42732
390.09         84.3918
390.54        84.44939
390.98        84.29831
391.43        83.91225
391.88        83.36703
392.33        82.81068
392.78        82.42294
393.23        82.23103
393.67        82.21667
394.12        82.32072
394.57        82.08769
395.02        81.57736
395.47        81.32182
395.91        81.34035
396.36        81.18308
396.81        80.88156
397.26        80.72244
397.71         80.6395
398.15        80.43222
398.60        80.18758
399.05         79.7226
399.50        79.20709
399.95        79.28592
400.39        79.80632
400.84        79.71044
401.29        78.99294
401.74        78.52236
402.18        78.34357
402.63        77.89674
403.08        77.31025
403.53        77.01929
403.97        77.05137
404.42        77.28388
404.87        77.53878
405.32        77.51851
405.76        77.15907
406.21        76.63388
406.66        76.09531
407.11        75.75481
407.55        75.74576
408.00        75.97983
408.45          76.349
408.90        76.82061
409.34         77.1124
409.79        76.58942
410.24        75.53445
410.68        74.98247
411.13        75.03925
411.58        75.16148
412.03        75.21005
412.47        75.19199
412.92        75.03449
413.37        74.78495
413.81        74.52508
414.26        74.43875
414.71        74.52774
415.15        74.76233
415.60        75.03121
416.05        75.22874
416.49        75.31524
416.94        75.31311
417.39        75.26295
417.83        75.20921
418.28        75.17825
418.73        75.15632
419.17        75.14606
419.62        75.15636
420.07        75.16941
420.51        75.15748
420.96        75.15176
421.41        75.07778
421.85        74.89896
422.30        74.88191
422.74        74.89611
423.19        74.47671
423.64        73.77466
424.08        73.71302
424.53        74.24517
424.98        74.50888
425.42        74.44874
425.87        74.64368
426.31        75.00932
426.76        74.88638
427.21        74.37355
427.65        74.14031
428.10        74.22369
428.54        74.27587
428.99        74.33293
429.44        74.39794
429.88        74.55829
430.33        75.11526
430.77         75.8079
431.22        76.35575
431.66        76.55563
432.11         75.9103
432.56        74.74741
433.00        74.45473
433.45        75.26141
433.89        75.89626
434.34        75.71047
434.78        76.80748
435.23        76.76643
435.67        74.01844
436.12        75.12381
436.57        74.99397
437.01        75.42362
437.46        75.69944
437.90        75.96017
438.35        74.27055
438.79        75.12177
439.24        74.96508
439.68        75.06347
440.13        75.50368
440.57        76.19462
441.02        76.24992
441.46        75.74743
441.91         76.2818
442.35        77.40414
442.80        77.14385
443.24        75.80463
443.69        75.77844
444.13        76.95631
444.58         77.4463
445.02        77.17786
445.47        77.18848
445.91        77.53043
446.36        77.79476
446.80        77.94599
447.24        78.19839
447.69        78.52122
448.13        78.30172
448.58        78.32783
449.02        78.20512
449.47        78.18282
449.91         78.0956
450.36        77.98325
450.80        77.90898
451.25        77.90907
451.69        77.94173
452.13        78.01541
452.58        78.13474
453.02        78.24103
453.47        78.24707
453.91        78.12526
454.36        77.90804
454.80        77.65475
455.24        77.38552
455.69        77.12863
456.13        77.04794
456.58        77.14897
457.02        76.70082
457.46        76.21764
457.91        76.51592
458.35        77.35248
458.79        77.39111
459.24        76.64179
459.68        75.70188
460.13        74.89927
460.57        74.58419
461.01        74.92533
461.46        74.96696
461.90        75.49875
462.34        76.52991
462.79        76.25653
463.23        76.42699
463.68        76.35391
464.12        76.18351
464.56        75.83846
465.01        74.81711
465.45        73.50304
465.89        73.46752
466.34        74.44586
466.78        74.73999
467.22        74.27718
467.67        73.99969
468.11        74.04528
468.55         74.1218
468.99         74.1841
469.44        74.08932
469.88        73.84977
470.32        73.66815
470.77        73.57317
471.21         73.4783
471.65        73.37624
472.10        73.30433
472.54        73.27583
472.98        73.27212
473.42        73.27201
473.87        73.41647
474.31        73.55356
474.75         73.2228
475.20        72.57563
475.64        72.32462
476.08        72.53266
476.52        72.46104
476.97        72.04879
477.41        72.13783
477.85        72.88718
478.29        71.76408
478.74        72.75713
479.18        72.90952
479.62        72.58816
480.06        72.52562
480.50        72.50541
480.95        72.45185
481.39        72.30941
481.83        72.15862
482.27        72.10457
482.72        72.11671
483.16        72.06606
483.60        72.06789
484.04        72.11081
484.48        72.31618
484.93         72.0294
485.37        72.24376
485.81        72.33019
486.25        71.13873
486.69        72.31272
487.14        73.63879
487.58        72.67754
488.02        71.98238
488.46        70.91727
488.90        70.88706
489.34        72.59998
489.79        73.33198
490.23        71.92871
490.67        71.13714
491.11        70.86892
491.55        71.03113
491.99        71.45946
492.43        71.51913
492.88        71.17749
493.32        70.99412
493.76        71.04606
494.20         71.0945
494.64        71.13332
495.08        71.28996
495.52         71.4749
495.96         71.4184
496.41        71.13545
496.85        70.96109
497.29        70.85061
497.73        70.83457
498.17        70.10764
498.61        70.29575
499.05        70.96488
499.49        71.15067
499.93        70.61879
500.37        70.53018
500.82        70.83466
501.26        70.92948
501.70        70.85883
502.14        70.91093
502.58        71.09454
503.02        71.22557
503.46        71.28677
503.90        71.34251
504.34        71.35646
504.78        71.25095
505.22        71.01397
505.66        70.71422
506.10        70.48576
506.54         70.2606
506.98        70.01202
507.42        70.43845
507.86        70.92384
508.30        70.11146
508.74        70.78434
509.18        70.58176
509.62        70.42579
510.06        70.29825
510.50        70.24616
510.94        70.21004
511.38        70.17673
511.82        70.21093
512.26        70.30616
512.70        70.45428
513.14        70.60847
513.58        70.68671
514.02        70.67159
514.46         70.5834
514.90        70.47452
515.34         70.4342
515.78        70.48174
516.22        70.58456
516.66         70.6976
517.10        70.74889
517.54        70.71889
517.98        70.63647
518.42        70.52309
518.86        70.41092
519.30        70.31712
519.74        70.23386
520.18        70.17535
520.62        70.16253
521.06        70.19903
521.50        70.28653
521.93        70.40233
522.37        70.48353
522.81        70.52264
523.25        70.52284
523.69         70.5169
524.13        70.56329
524.57         70.6628
525.01        70.78236
525.45        70.86806
525.89        70.83465
526.32        70.66208
526.76        70.41415
527.20        70.12498
527.64        69.85249
528.08        69.62704
528.52        69.43301
528.96        69.31565
529.40        69.34153
529.83        69.50425
530.27        69.78922
530.71        70.07954
531.15        70.19383
531.59        70.09536
532.03        69.83109
532.46        69.51431
532.90        69.37825
533.34        69.45953
533.78        69.64711
534.22        69.83834
534.66        69.96245
535.09        69.93174
535.53        69.64093
535.97        69.19634
536.41        68.94123
536.85         68.9269
537.28        68.99175
537.72        69.09987
538.16        69.24821
538.60        69.40604
539.04        69.57442
539.47        69.70937
539.91        69.78588
540.35        69.78504
540.79        69.71657
541.22        69.61409
541.66        69.56005
542.10        69.56586
542.54        69.61102
542.97        69.66032
543.41        69.68819
543.85         69.6749
544.29        69.64429
544.72        69.59054
545.16        69.54019
545.60        69.48714
546.04        69.44437
546.47        69.43649
546.91        69.46552
547.35        69.54462
547.79        69.73126
548.22        69.94932
548.66        70.01891
549.10        69.98425
549.53        69.84302
549.97        69.66558
550.41        69.43924
550.84        69.27399
551.28        69.31069
551.72        69.45307
552.15        69.61559
552.59        69.85537
553.03        69.18097
553.46        69.70329
553.90        69.64059
554.34        69.60735
554.77        69.60294
555.21        69.65747
555.65         69.6949
556.08        69.79772
556.52        69.83057
556.96        69.80735
557.39        69.87367
557.83        69.97647
558.27        69.74248
558.70        69.24294
559.14        69.00411
559.57        69.02761
560.01        68.96333
560.45         68.8456
560.88        68.99474
561.32        69.37239
561.75        69.62516
562.19        69.69815
562.63        69.65136
563.06        69.52703
563.50        69.35339
563.93        69.15877
564.37        69.27579
564.80        69.63128
565.24        69.55846
565.68        68.95527
566.11        69.59061
566.55        68.97901
566.98        68.84381
567.42        68.58942
567.85        68.70791
568.29        69.17056
568.72        69.50298
569.16        69.71462
569.60        70.11871
570.03        69.98586
570.47        70.18342
570.90        70.61304
571.34         69.5649
571.77        70.16515
572.21        70.53348
572.64        70.14854
573.08        70.54535
573.51        69.55679
573.95        69.68066
574.38        70.43835
574.82        70.37044
575.25        69.97345
575.69        69.85529
576.12        70.30025
576.56        69.39003
576.99         69.6512
577.42        69.68988
577.86        70.12479
578.29        70.50533
578.73        70.66825
579.16        70.48154
579.60        69.93793
580.03        69.97599
580.47        69.60419
580.90          70.798
581.33        70.55977
581.77        70.73581
582.20          70.282
582.64        70.81026
583.07        70.25127
583.51        69.83443
583.94        69.75268
584.37        69.85505
584.81         70.2979
585.24        70.37573
585.68        70.09247
586.11        70.08106
586.54        70.54834
586.98        69.47259
587.41         69.0156
587.85        69.69939
588.28        69.59071
588.71        69.65938
589.15        69.30115
589.58        69.76443
590.01        69.80365
590.45         69.2301
590.88        70.25636
591.31        70.03932
591.75        69.45896
592.18        69.01276
592.61         68.9924
593.05        69.16217
593.48        70.28376
593.91        70.03688
594.35        70.09738
594.78        69.04787
595.21        68.72507
595.65        68.99499
596.08         70.2383
596.51        70.17224
596.94        69.69839
597.38        69.38791
597.81        69.48515
598.24        70.10622
598.68        69.75699
599.11        69.15376
599.54        70.36353
599.97        69.67863
600.41         69.7166
600.84        69.14522
601.27        69.57399
601.70        69.19111
602.14        69.54559
602.57         69.3279
603.00        69.03802
603.43        69.05456
603.87        69.61085
604.30        69.72192
604.73        69.61257
605.16        68.74645
605.60        68.84698
606.03        68.69896
606.46         68.7379
606.89        68.67715
607.32        69.10737
607.76        68.67218
608.19        69.13786
608.62        69.05881
609.05        69.00864
609.48        68.96828
609.92        69.81981
610.35        69.41828
610.78        68.78352
611.21        68.60889
611.64        68.84234
612.07        69.17561
612.50        69.08749
612.94        69.14865
613.37        69.21137
613.80        68.97861
614.23        68.43871
614.66        68.40055
615.09         68.7947
615.52        68.96349
615.96         68.8418
616.39        68.89969
616.82        69.16529
617.25        68.83949
617.68        68.91068
618.11        68.87857
618.54        69.02142
618.97        69.05235
619.40        68.94245
619.84        69.03677
620.27        68.69364
620.70        68.69788
621.13         68.7854
621.56        68.19868
621.99        67.35739
622.42        67.18191
622.85        67.76323
623.28        67.77744
623.71        67.68724
624.14        68.03629
624.57        68.44521
625.00         68.4404
625.43         68.5983
625.86         68.4389
626.29          68.254
626.72        68.07967
627.15        68.09786
627.58          68.176
628.01        68.24136
628.44        68.15656
628.87        67.98443
629.30        67.64538
629.73        67.54367
630.16         67.9493
630.59        67.66167
631.02        67.85108
631.45        68.08971
631.88        68.27803
632.31        68.37119
632.74         68.4147
633.17        68.41608
633.60        68.35507
634.03        68.24513
634.46        68.08601
634.89        67.90432
635.32        67.76527
635.75        67.69029
636.18        67.59257
636.61         67.5031
637.04        67.50947
637.47         67.6106
637.89        67.77431
638.32        67.90878
638.75        67.92903
639.18        67.81458
639.61        67.59404
640.04        67.35593
640.47        67.24229
640.90        67.28854
641.33        67.45857
641.76        67.67812
642.18        67.82862
642.61        67.85217
643.04        67.79111
643.47        67.70679
643.90        67.69894
644.33        67.78687
644.76        67.93005
645.18        68.06438
645.61        68.07511
646.04        67.94904
646.47        67.73098
646.90        67.48472
647.33        67.33368
647.75        67.22337
648.18         67.2375
648.61        67.37412
649.04        67.39574
649.47        67.22072
649.89        67.93648
650.32        67.68953
650.75        67.68784
651.18        67.47632
651.61        67.44684
652.03        67.60827
652.46        67.73361
652.89        67.78975
653.32        67.67347
653.74        67.50722
654.17        67.30403
654.60        67.95059
655.03        67.67415
655.46        67.05884
655.88         67.1452
656.31        69.75284
656.74        70.64314
657.16        71.76668
657.59        72.81102
658.02        69.25458
658.45        68.95013
658.87        67.80738
659.30        67.87555
659.73        67.51082
660.15        68.29647
660.58        67.46248
661.01        67.40148
661.44        67.42672
661.86        67.23862
662.29        66.83042
662.72        67.29663
663.14         67.2865
663.57        67.20959
664.00          66.818
664.42        66.81645
664.85        67.23188
665.27        67.69053
665.70        68.01694
666.13        68.15679
666.55        68.07039
666.98        67.70425
667.41        67.16655
667.83        67.07677
668.26        66.79778
668.69        66.84338
669.11        66.97375
669.54         67.1334
669.96        67.29346
670.39        67.46671
670.82        67.64191
671.24        67.76499
671.67        67.82144
672.09        67.79955
672.52        67.73489
672.94        67.65887
673.37        67.58687
673.80        67.48202
674.22        67.37984
674.65        67.32469
675.07        67.34037
675.50        67.39532
675.92        67.45511
676.35        67.45349
676.77        67.38019
677.20        67.25544
677.62        67.12607
678.05        67.06837
678.47        67.09364
678.90        67.18105
679.32        67.29733
679.75        67.38204
680.17        67.41004
680.60        67.49036
681.02        67.46252
681.45        67.44126
681.87        67.40147
682.30        67.30248
682.72        67.20444
683.15        67.25589
683.57         67.4445
684.00        67.53662
684.42         67.5368
684.85        67.63277
685.27        67.80963
685.70        67.96109
686.12        68.04299
686.54        68.06189
686.97        68.00895
687.39        67.88715
687.82        67.73798
688.24        67.65166
688.66        67.64741
689.09         67.7078
689.51        67.79964
689.94        67.83194
690.36         67.7924
690.78        67.69071
691.21        67.59137
691.63        67.58944
692.06        67.70383
692.48           67.91
692.90        68.10513
693.33         68.1326
693.75        67.96302
694.17        67.61903
694.60         67.2535
695.02        67.13596
695.44         67.2952
695.87         67.6189
696.29        67.96159
696.71        67.98155
697.14        67.69831
697.56           67.46
697.98        67.38641
698.41        67.39211
698.83         67.4902
699.25        67.82305
699.68        68.20834
700.10        68.32291
700.52        68.08446
700.94        67.60716
701.37        67.10698
701.79         66.9336
702.21         67.1587
702.64        67.65762
703.06        68.23019
703.48        68.53236
703.90        68.46884
704.33        68.14689
704.75        67.72168
705.17        67.43156
705.59         67.3597
706.01        67.43476
706.44        67.58204
706.86        67.71702
707.28        67.79613
707.70        67.81276
708.12        67.82265
708.55        67.99085
708.97        68.27505
709.39        68.39125
709.81        68.32589
710.23        68.31292
710.66        68.35497
711.08        68.32307
711.50        68.20498
711.92        68.07193
712.34        67.93932
712.76        67.80672
713.19         67.6824
713.61        67.61718
714.03        67.61061
714.45        67.66087
714.87        67.78066
715.29        67.98746
715.71        68.26529
716.13        68.58299
716.56        68.86416
716.98        69.07624
717.40        69.15601
717.82        69.12118
718.24        68.97324
718.66        68.72053
719.08        68.40236
719.50        68.05257
719.92        67.75034
720.34        67.60842
720.76         67.6469
721.19        67.80816
721.61        68.07767
722.03        68.37204
722.45        68.63836
722.87        68.87988
723.29        69.01945
723.71        68.94082
724.13        68.64396
724.55        68.17937
724.97        67.68636
725.39        67.40114
725.81        67.38898
726.23        67.56497
726.65        67.84367
727.07        68.23058
727.49          68.423
727.91        68.64605
728.33        68.82464
728.75         68.9635
729.17        69.05937
729.59        69.09596
730.01        69.07375
730.43        69.00526
730.85        68.89925
731.27        68.75779
731.69        68.61102
732.10        68.49708
732.52        68.42496
732.94        68.41055
733.36        68.43452
733.78        68.32573
734.20        68.06165
734.62        67.93679
735.04        68.10228
735.46        67.52918
735.88        68.24265
736.30        68.56815
736.72        69.01125
737.13        69.36897
737.55        69.53673
737.97        69.65021
738.39        69.65694
738.81        69.33184
739.23        68.79349
739.65        68.56126
740.06        68.64735
740.48         68.6944
740.90         68.6714
741.32        68.84166
741.74        69.15808
742.16        69.37569
742.57        69.45129
742.99        69.43401
743.41        69.35065
743.83        69.22747
744.25        69.08971
744.67        68.92229
745.08        68.79385
745.50        68.79188
745.92        68.93004
746.34        69.17326
746.75        69.43231
747.17        69.51064
747.59        69.36803
748.01         69.1624
748.42        68.94901
748.84        68.58333
749.26        68.21726
749.68        68.34905
750.09        68.86163
750.51        69.09484
750.93         68.9874
751.35         68.9131
751.76        68.89034
752.18        68.79765
752.60         68.6435
753.01        68.48403
753.43        68.33192
753.85        68.21761
754.27        68.15948
754.68        68.20029
755.10         68.3414
755.52        68.36403
755.93        68.58298
756.35        68.70416
756.77        68.85253
757.18        68.96375
757.60        69.02366
758.02        69.24537
758.43        69.54301
758.85        69.02583
759.26        68.78306
759.68        68.44415
760.10        68.39715
760.51        68.56707
760.93        68.85382
761.34        68.98466
761.76        68.94016
762.18        68.96808
762.59          69.106
763.01        69.13376
763.42        69.14758
763.84        69.20026
764.26        69.31218
764.67        69.56104
765.09        69.84408
765.50        69.60821
765.92        69.02696
766.33        68.81294
766.75        68.93038
767.16        68.91145
767.58         68.6939
768.00        68.55547
768.41        68.59112
768.83        68.82655
769.24        69.14017
769.66        69.39655
770.07        69.48985
770.49        69.02307
770.90        68.31163
771.32        68.68939
771.73        69.96204
772.15        70.45802
772.56         70.0759
772.97          69.741
773.39        69.60596
773.80        69.50203
774.22        69.45491
774.63        69.55954
775.05        69.70341
775.46        69.78012
775.88        69.73159
776.29        69.61636
776.70        69.50182
777.12        69.52456
777.53        69.71594
777.95        69.97241
778.36        70.24016
778.77        70.39391
779.19        70.41845
779.60        70.38351
780.02        70.26196
780.43        70.10332
780.84         69.9593
781.26        69.49879
781.67        68.96931
782.09        69.47901
782.50        70.73023
782.91        70.97318
783.33        70.21573
783.74        69.97387
784.15        70.28479
784.57        70.22746
784.98        69.87691
785.39        69.78629
785.81        69.99978
786.22        70.38671
786.63         70.8187
787.04         71.0672
787.46        71.09071
787.87        70.95303
788.28        70.76789
788.70        70.66912
789.11        70.66746
789.52        70.76994
789.93        70.90407
790.35        70.87321
790.76        70.70023
791.17         70.5897
791.58        70.56865
792.00        70.50035
792.41        70.40928
792.82        70.39963
793.23        70.46557
793.65        70.47852
794.06        70.47382
794.47        70.65334
794.88        70.93912
795.29         71.0539
795.71        70.94441
796.12        70.77157
796.53        70.62322
796.94        70.61403
797.35        70.78065
797.76        71.09264
798.18        71.40888
798.59         71.5492
799.00        71.44413
799.41        71.15433
799.82        70.81065
800.23        70.63121
800.64        70.67018
801.06        70.83038
801.47        71.05507
801.88         71.1506
802.29        71.06336
802.70        70.86114
803.11        70.60872
803.52        70.40689
803.93        70.31023
804.34        70.28983
804.75        70.35468
805.17        70.56649
805.58         70.9551
805.99        71.29379
806.40         71.5388
806.81        72.06333
807.22        72.61942
807.63        72.20493
808.04        71.05955
808.45        70.48212
808.86        70.61555
809.27        70.81421
809.68         70.9272
810.09        70.98288
810.50        70.92348
810.91        70.75088
811.32        70.59332
811.73        70.64903
812.14        70.95252
812.55        71.43495
812.96        71.92857
813.37        72.12517
813.78        71.93914
814.19        71.48911
814.60        70.94302
815.01         70.5234
815.42        70.28839
815.83        70.17386
816.24        70.15359
816.65        70.17776
817.05        70.22876
817.46        70.31046
817.87        70.41394
818.28        70.46505
818.69        70.45214
819.10        70.36825
819.51        70.29842
819.92        70.40595
820.33        70.71412
820.74        71.16296
821.14        71.60364
821.55        71.79277
821.96        71.68243
822.37        71.35308
822.78        70.94624
823.19        70.70461
823.60        70.70826
824.00        70.91013
824.41        71.18917
824.82        71.44465
825.23        71.61309
825.64         71.7282
826.04        71.78871
826.45        71.74728
826.86        71.62646
827.27        71.44572
827.68        71.23948
828.08         71.1041
828.49        71.01701
828.90        70.96695
829.31        71.00016
829.72        71.18593
830.12        71.53736
830.53        71.97669
830.94        72.32966
831.35        72.25185
831.75        71.70431
832.16        70.78825
832.57        69.81892
832.97        69.27525
833.38        69.27927
833.79        69.66639
834.20         70.2627
834.60        70.78239
835.01        71.12392
835.42        71.41528
835.82         71.6241
836.23        71.61369
836.64        71.41446
837.04        71.00477
837.45        70.64832
837.86        70.85331
838.26        71.72575
838.67        73.09525
839.08        74.47323
839.48        74.92817
839.89        74.22959
840.29        72.70808
840.70         71.0892
841.11        70.23109
841.51        70.34567
841.92        71.15874
842.33        72.31584
842.73         73.1776
843.14        73.39581
843.54        73.20924
843.95         72.8407
844.35        72.69962
844.76        72.87584
845.17        73.22375
845.57        73.54656
845.98        73.51639
846.38        73.08852
846.79        72.38577
847.19        71.65446
847.60        71.24504
848.00        71.26014
848.41        71.56831
848.81        71.99928
849.22        72.18314
849.62        72.06149
850.03        71.73365
850.43        71.36374
850.84        71.14555
851.24        71.18729
851.65        71.34454
852.05        71.65049
852.46        72.04242
852.86        72.46272
853.27        72.92451
853.67        73.23723
854.07        73.25443
854.48        72.94386
854.88        72.37247
855.29        71.68216
855.69        71.28445
856.10        71.23523
856.50        71.51733
856.90        71.92058
857.31        72.09999
857.71        72.00666
858.12        71.66438
858.52        71.26717
858.92        71.02372
859.33        70.98571
859.73        71.13451
860.13        71.29623
860.54        71.21333
860.94        70.87551
861.34        70.35362
861.75        69.85147
862.15        69.73935
862.55         70.0683
862.96        70.67525
863.36        71.36249
863.76        71.70813
864.17        71.57637
864.57        71.13662
864.97         70.4892
865.38        69.79807
865.78        69.18085
866.18        68.59393
866.58        68.16259
866.99        68.10452
867.39        68.47124
867.79        69.18875
868.19        70.04234
868.60        70.67241
869.00         71.0067
869.40        71.08116
869.80        70.99001
870.21         70.9398
870.61        71.05681
871.01        71.22153
871.41        71.29719
871.81        71.09311
872.22        70.58231
872.62        69.84449
873.02        69.09671
873.42        68.68915
873.82        68.72113
874.22        69.09638
874.63        69.57124
875.03        69.77154
875.43        69.58981
875.83        69.14108
876.23        68.64613
876.63        68.44761
877.03         68.6288
877.44        69.05235
877.84        69.54523
878.24        69.82623
878.64        69.76604
879.04        69.32973
879.44        68.76937
879.84         68.5586
880.24        68.75622
880.64        69.18664
881.04        69.54209
881.44        69.34901
881.84        68.53134
882.24        67.29376
882.65        66.04241
883.05        65.38777
883.45        65.48757
883.85        66.16302
884.25        67.13401
884.65        67.90742
885.05        68.30833
885.45        68.47553
885.85        68.52215
886.25        68.63672
886.65        68.86933
887.05        69.09962
887.45        69.30914
887.85        69.49651
888.25        69.63241
888.65        69.74516
889.04        69.72369
889.44        69.40645
889.84        68.78495
890.24        67.93586
890.64        67.08921
891.04         66.6277
891.44        66.64474
891.84        67.02575
892.24          67.562
892.64        67.92251
893.04        68.02764
893.44        67.99272
893.83        67.93101
894.23        67.97575
894.63         68.1911
895.03        68.48047
895.43        68.84374
895.83        69.30296
896.23        69.81276
896.63        70.34737
897.02        70.73814
897.42        70.73682
897.82        70.31889
898.22        69.61079
898.62        68.80943
899.01        68.20461
899.41        67.89901
899.81        67.79067
900.21        67.85847
900.61        68.05752
901.00        68.33101
901.40        68.68584
901.80        68.97237
902.20        68.93903
902.59        68.56779
902.99        67.93694
903.39         67.2622
903.79        66.90501
904.18        66.95346
904.58        67.29386
904.98        67.82308
905.38        68.39052
905.77        68.91917
906.17        69.45502
906.57        69.87122
906.96        69.96142
907.36         69.6845
907.76        69.10629
908.15        68.48299
908.55        68.21201
908.95        68.39301
909.34        68.92773
909.74        69.54475
910.14         69.8745
910.53        69.78098
910.93        69.40536
911.33        68.86247
911.72        68.31121
912.12        67.89141
912.52          67.567
912.91        67.34476
913.31        67.26127
913.70        67.31703
914.10        67.47287
914.49         67.8025
914.89        68.32811
915.29        69.02884
915.68        69.86631
916.08        70.55376
916.47         70.7018
916.87        70.26517
917.26        69.36636
917.66        68.40797
918.05        67.85221
918.45        67.82015
918.84        68.22549
919.24        68.81658
919.64        69.27399
920.03        69.48461
920.42        69.49979
920.82        69.47961
921.21        69.62048
921.61        69.94366
922.00        70.39925
922.40        70.77811
922.79        70.88821
923.19        70.65463
923.58        70.19354
923.98         69.6896
924.37        69.33719
924.77        69.20474
925.16        69.18645
925.55        69.24485
925.95        69.29071
926.34        69.29798
926.74        69.28925
927.13        69.16932
927.52        68.71639
927.92        67.98321
928.31        67.04709
928.70         66.2019
929.10        65.86699
929.49        66.10854
929.89        66.74614
930.28        67.64433
930.67        68.43446
931.07        68.93681
931.46        69.32153
931.85         69.4528
932.24        69.18169
932.64        68.58257
933.03        67.65894
933.42        66.85238
933.82        66.81142
934.21        67.63412
934.60        69.18933
934.99        70.91164
935.39        71.75919
935.78        71.47739
936.17        70.26052
936.56        68.71732
936.96        67.81618
937.35        67.81507
937.74        68.45321
938.13        69.20835
938.53        69.27111
938.92        68.47813
939.31        67.15171
939.70        65.83228
940.09        65.27201
940.49        65.59991
940.88        66.60373
941.27        67.86269
941.66        68.61803
942.05        68.63383
942.44        68.16638
942.84        67.56853
943.23        67.38647
943.62        67.76825
944.01         68.4664
944.40        69.31487
944.79         70.0779
945.18        70.61994
945.57        71.01524
945.97        71.08484
946.36        70.63432
946.75        69.66063
947.14        68.32059
947.53        66.97021
947.92        66.11209
948.31        65.86349
948.70        66.10028
949.09        66.67768
949.48        67.31078
949.87        67.86301
950.26        68.38984
950.65        68.82899
951.04        69.09499
951.43        69.16733
951.82        69.01447
952.21        68.73742
952.60        68.53742
952.99        68.48086
953.38        68.55814
953.77        68.67117
954.16        68.64823
954.55        68.44585
954.94        68.08764
955.33        67.73914
955.72        67.68207
956.11        67.97477
956.50        68.55074
956.89        69.08307
957.28        69.02394
957.66        68.27368
958.05         67.0784
958.44        65.89978
958.83        65.40129
959.22        65.70175
959.61        66.58739
960.00        67.69653
960.39        68.35085
960.78        68.30709
961.16        67.76804
961.55        67.01819
961.94         66.3877
962.33        66.00101
962.72        65.77522
963.11        65.68021
963.49        65.71814
963.88        65.79556
964.27        65.92168
964.66        66.16866
965.04        66.66441
965.43         67.3467
965.82        68.20746
966.21        68.87045
966.60         68.6578
966.98        67.45063
967.37        65.60381
967.76         63.7883
968.15        62.83393
968.53        62.88781
968.92        63.74276
969.31         64.9848
969.69        65.76011
970.08        65.68566
970.47        65.04351
970.86        64.30621
971.24        64.15182
971.63        64.73344
972.02        65.83478
972.40        67.10141
972.79        67.60625
973.17        67.14509
973.56        66.05148
973.95        64.84492
974.33        64.17005
974.72        64.18483
975.11        64.69362
975.49        65.48138
975.88        66.05477
976.26        66.28399
976.65        66.26511
977.04        66.17668
977.42        66.26562
977.81        66.54673
978.19         66.8704
978.58        67.22746
978.96        67.59229
979.35        67.89184
979.74        68.17632
980.12        68.34679
980.51        67.99371
980.89        67.23852
981.28        66.24812
981.66        65.38347
982.05        65.12064
982.43         65.5612
982.82        66.50822
983.20        67.93774
983.59        69.63788
983.97        71.47649
984.35         73.4145
984.74        74.85966
985.12        75.11861
985.51        74.03958
985.89        71.89812
986.28        69.57273
986.66        68.31743
987.04        68.49067
987.43        69.74018
987.81        71.53214
988.20        72.62912
988.58        72.59615
988.96        71.72352
989.35        70.41389
989.73        69.21368
990.12        68.30174
990.50        67.57223
990.88        66.87159
991.27        66.03217
991.65        65.08894
992.03        64.16028
992.42        63.65516
992.80         64.0683
993.18        65.46728
993.56        67.72112
993.95        70.06818
994.33        71.24795
994.71        70.73235
995.10        68.96902
995.48        66.85448
995.86        65.82024
996.24        66.19928
996.63        67.49121
997.01        69.27464
997.39        70.28773
997.77        70.03111
998.15          69.045
998.54        67.64201
998.92        66.11064
999.30         64.7244
999.68        63.37175
1000.06        62.51174
1000.45        62.79107
1000.83        64.37456
1001.21        67.22592
1001.59        70.63182
1001.97        72.75119
1002.35        72.85712
1002.73        71.43081
1003.12        69.60827
1003.50        68.82951
1003.88        69.52925
1004.26        71.19173
1004.64        73.36649
1005.02        75.04047
1005.40        75.70225
1005.78         75.8253
1006.16        75.25056
1006.54         73.6934
1006.92        71.39686
1007.30        68.52099
1007.69        66.15305
1008.07        65.70236
1008.45         67.5508
1008.83        71.40913
1009.21        76.17063
1009.59         78.9932
1009.97        78.52792
1010.35        75.61484
1010.73        71.43702
1011.11        67.72903
1011.49        65.18152
1011.86        63.40538
1012.24        62.53118
1012.62        62.73429
1013.00        63.93166
1013.38        66.15232
1013.76        69.08291
1014.14        71.57076
1014.52        72.89165
1014.90        73.17577
1015.28        72.47166
1015.66        71.05555
1016.04        69.16775
1016.41        66.70806
1016.79        64.46012
1017.17        63.95248
1017.55        65.44463
1017.93        68.43799
1018.31        71.65445
1018.69        73.22787
1019.06        72.78735
1019.44        70.74524
1019.82        67.77686
1020.20        65.71056
1020.58        65.37491
1020.95        65.96274
1021.33        67.14468
1021.71        68.44958
1022.09        69.76037
1022.46        71.64733
1022.84        73.23932
1023.22         72.5547
1023.60        69.23335
1023.97        63.87822
1024.35        59.20759
1024.73        58.29333
