SpectraSmart Spectrum 2.9.0.0
--------- Device Information -----------
Spectrum Name :  反射率_0
Saving Time :  2024/04/26 23:24:12
Spectro-Module Model Name : SE2030-DUVN
Spectro-Module Serial Number : OS361AC55029948
Wavelength Start : 200
Wavelength End : 1025
Wavelength Unit : Wavelength(nm)
Spectrum Unit : Reflectance(%)
-----------Spectrum Setting ------------
Integration Time : 20ms
Average : 10
Boxcar : 0
Background removal :  enabled
linearity correction :  enabled
SC :  disabled
Intensity correction :  disabled
DWT denoise :  enabled
savitzky-golay :  disabled
FFT :  disabled
Running average :  disabled
Kalman :  disabled
High pass :  disabled
---------------BEGIN--------------------
Wavelength(nm)             Reflectance(%)
200.29               0
200.75        41.34439
201.21        40.15139
201.67        39.60313
202.13        38.97906
202.58        38.00527
203.04        37.12269
203.50        36.86235
203.96        38.36021
204.42        42.19767
204.88        47.86209
205.34        53.69725
205.80        57.09816
206.26        57.13534
206.72        54.38535
207.18        50.71661
207.64        47.53167
208.10        44.79986
208.55        42.45322
209.01        39.13905
209.47        34.44033
209.93        30.57639
210.39        28.63921
210.85         29.0572
211.31         32.4556
211.77         40.2491
212.23        58.11032
212.69        101.7697
213.14        170.7306
213.60        160.1297
214.06        105.0004
214.52         70.1868
214.98        56.32431
215.44        52.40079
215.90        52.24451
216.36         54.0227
216.81        55.66027
217.27        56.71427
217.73        59.08404
218.19        61.85129
218.65        60.45593
219.11        55.15778
219.57        48.98073
220.02        45.80082
220.48        48.24401
220.94        56.10536
221.40        70.57742
221.86        90.64515
222.32        101.4639
222.77        92.04189
223.23        73.39083
223.69        56.34356
224.15        46.49991
224.61        42.36031
225.06         40.7761
225.52        40.91315
225.98        41.98483
226.44        43.53177
226.90        45.80295
227.36        47.65981
227.81        47.08942
228.27        44.16111
228.73         39.7272
229.19        35.64983
229.65        34.01583
230.10        34.89595
230.56        37.60874
231.02          40.737
231.48        42.00272
231.93        40.96192
232.39        38.70133
232.85        36.54877
233.31         36.2535
233.77        37.96241
234.22        41.03274
234.68        44.37761
235.14        46.41427
235.60        46.70938
236.05        45.79219
236.51        44.34905
236.97        43.81159
237.43        44.81207
237.88        46.94428
238.34        49.84591
238.80        53.27399
239.26        57.26947
239.71        62.66007
240.17        69.03266
240.63        74.95764
241.08        79.28934
241.54        80.89648
242.00        81.41346
242.46        85.21304
242.91        95.63155
243.37        114.6345
243.83        142.9512
244.28        167.3907
244.74        168.4206
245.20        146.2267
245.66        118.9635
246.11        102.9505
246.57        98.83423
247.03        101.5765
247.48        105.5854
247.94        102.2787
248.40        93.03118
248.85        83.39008
249.31        76.58163
249.77        73.54182
250.22        73.47309
250.68        75.13552
251.14        78.56624
251.59        82.88192
252.05        86.71196
252.51        90.56909
252.96        91.71297
253.42        88.45344
253.88        82.06721
254.33        73.76443
254.79        68.37806
255.25        69.88309
255.70        77.38794
256.16          88.839
256.62        98.73193
257.07        98.96175
257.53        91.62505
257.99        81.94188
258.44        73.88454
258.90        70.71236
259.35        70.94685
259.81        73.16149
260.27         75.4108
260.72        75.46046
261.18        73.55448
261.63        70.47659
262.09        67.73764
262.55        66.28419
263.00        65.93237
263.46        66.29842
263.91        66.42805
264.37        65.52764
264.83        63.55416
265.28         60.9517
265.74        58.54676
266.19        56.98531
266.65        56.40834
267.11        56.40202
267.56        56.56605
268.02        56.29984
268.47        55.42253
268.93         54.1854
269.38        52.70631
269.84        51.21934
270.30        49.80871
270.75        48.39666
271.21        47.10256
271.66        46.04652
272.12        45.24235
272.57        44.64225
273.03        44.10675
273.48        43.37966
273.94        42.46381
274.39        41.39959
274.85        40.37302
275.31         39.4956
275.76        38.76707
276.22        38.17567
276.67        37.62843
277.13        37.10215
277.58        36.52546
278.04         35.9443
278.49        35.31879
278.95        34.71428
279.40        34.09169
279.86        33.51605
280.31         32.9179
280.77        32.31319
281.22        31.67478
281.68        31.07991
282.13        30.55848
282.59        30.24028
283.04        30.09868
283.50        30.11201
283.95        30.19079
284.41        30.20864
284.86        30.12559
285.32        30.00174
285.77        29.87176
286.22        29.85646
286.68        29.97277
287.13         30.1355
287.59        30.31442
288.04        30.41579
288.50         30.4407
288.95        30.39732
289.41        30.31532
289.86        30.16007
290.32        29.99292
290.77        29.82801
291.22        29.75647
291.68        29.89404
292.13        30.26031
292.59        30.85286
293.04        31.63617
293.50        32.56348
293.95        33.59925
294.40        34.75759
294.86        36.02145
295.31        37.35611
295.77        38.75758
296.22        40.19785
296.68        41.70848
297.13        43.32957
297.58        45.07335
298.04        46.92904
298.49        48.83131
298.95        50.69852
299.40        52.49462
299.85        54.24415
300.31         56.0141
300.76        57.88258
301.21        59.87391
301.67        61.97652
302.12        64.08482
302.58        66.13468
303.03        68.06078
303.48          69.922
303.94        71.80484
304.39        73.76353
304.84        75.83709
305.30        77.99688
305.75         80.1422
306.20        82.22069
306.66        84.22358
307.11        86.13414
307.57        87.96237
308.02        89.60116
308.47        91.08244
308.93        92.43925
309.38        93.75986
309.83        95.31143
310.29        97.13097
310.74        99.12408
311.19        101.0672
311.65        102.5604
312.10         103.486
312.55        103.9649
313.00        104.2509
313.46        104.7448
313.91        105.5308
314.36        106.5309
314.82        107.5757
315.27        108.4078
315.72        108.9314
316.18        109.2584
316.63        109.4957
317.08        109.8568
317.53        110.3972
317.99        111.0366
318.44        111.6733
318.89        112.1156
319.35        112.3167
319.80          112.35
320.25        112.3406
320.70         112.487
321.16         112.837
321.61        113.3698
322.06        113.9613
322.51        114.4173
322.97        114.6654
323.42        114.7612
323.87        114.8448
324.32        115.1698
324.78        115.7467
325.23        116.5782
325.68        117.3633
326.13         117.624
326.59        117.2623
327.04        116.4651
327.49        115.6209
327.94         115.373
328.39        115.8724
328.85        116.8933
329.30        118.1915
329.75         119.042
330.20        119.2088
330.66        118.8678
331.11        118.3631
331.56         118.167
332.01        118.4355
332.46        118.9956
332.92        119.6245
333.37        120.1331
333.82        120.3715
334.27        120.4759
334.72        120.5242
335.17        120.6112
335.63        120.7859
336.08        121.0789
336.53        121.5339
336.98        122.2841
337.43         123.323
337.88         124.559
338.34        125.8443
338.79        127.0598
339.24         128.052
339.69        128.8472
340.14        129.3113
340.59        129.2629
341.05        128.7714
341.50        127.9332
341.95        127.1301
342.40        126.9368
342.85          127.48
343.30        128.5974
343.75        129.9831
344.20        131.1032
344.66         131.772
345.11         132.115
345.56        132.2325
346.01        132.3038
346.46        132.4162
346.91        132.5208
347.36         132.621
347.81        132.7509
348.26        132.9091
348.72         133.085
349.17        133.3158
349.62        133.6827
350.07        134.1687
350.52         134.759
350.97        135.1974
351.42        135.0851
351.87        134.3797
352.32        133.2155
352.77        132.0314
353.22        131.4702
353.67        131.6484
354.13        132.3805
354.58        133.2286
355.03          133.41
355.48        132.7323
355.93         131.435
356.38        130.0153
356.83        129.2189
357.28        129.1839
357.73        129.6393
358.18        130.1185
358.63         129.883
359.08        128.7589
359.53        127.0251
359.98        125.0853
360.43        123.5108
360.88        122.4528
361.33        121.7427
361.78        121.1636
362.23        120.3823
362.68        119.3247
363.13        118.1311
363.58        116.9724
364.03         116.085
364.48        115.5027
364.93        115.1011
365.38        114.7296
365.83        114.1726
366.28         113.368
366.73        112.3979
367.18        111.3252
367.63        110.2408
368.08        109.1923
368.53         108.162
368.98        107.1897
369.43        106.3356
369.88        105.6057
370.33        104.9909
370.78        104.4326
371.23        103.8292
371.68        103.1473
372.13        102.3974
372.58        101.6215
373.03        100.8913
373.48         100.218
373.93        99.57586
374.38        98.90404
374.83        98.11716
375.28        97.20917
375.72        96.19984
376.17        95.23812
376.62        94.42384
377.07        93.79449
377.52        93.34451
377.97        92.98177
378.42        92.56961
378.87        92.07477
379.32        91.49692
379.77        90.99869
380.22        90.82058
380.67         90.9659
381.11         91.3829
381.56        91.67065
382.01        91.26527
382.46         90.1057
382.91        88.45943
383.36        86.83405
383.81         85.9209
384.26        85.82722
384.71        86.30974
385.15        87.03667
385.60        87.42751
386.05        87.29145
386.50        86.79962
386.95        86.07216
387.40         85.3018
387.85        84.59045
388.29        83.84018
388.74        83.19975
389.19        82.66505
389.64        82.23228
390.09        81.90263
390.54        81.65411
390.98        81.41647
391.43        81.20077
391.88         80.9949
392.33        80.78764
392.78        80.51808
393.23        80.17844
393.67        79.88721
394.12        79.69805
394.57        79.22643
395.02        78.61913
395.47        78.56127
395.91        78.96275
396.36        78.99754
396.81        78.63039
397.26        78.32883
397.71        78.08936
398.15        77.73079
398.60        77.36537
399.05        76.84673
399.50        76.31425
399.95         76.2864
400.39        76.64499
400.84        76.53781
401.29        75.95984
401.74        75.61594
402.18        75.51739
402.63        75.13494
403.08        74.57033
403.53         74.2507
403.97        74.20188
404.42        74.26827
404.87        74.36026
405.32         74.3261
405.76        74.11114
406.21        73.90163
406.66        73.71337
407.11        73.35896
407.55        73.00458
408.00        73.07249
408.45        73.47485
408.90        73.73481
409.34        73.64034
409.79        73.02118
410.24        72.13039
410.68        71.65007
411.13        71.66495
411.58        71.80164
412.03        71.91454
412.47        71.92677
412.92        71.75907
413.37        71.46996
413.81        71.16236
414.26        71.05611
414.71        71.16042
415.15        71.43044
415.60        71.73793
416.05        71.94499
416.49        72.00117
416.94        71.93975
417.39        71.81806
417.83        71.70536
418.28        71.63659
418.73        71.59486
419.17        71.57159
419.62        71.55753
420.07        71.53131
420.51        71.47127
420.96         71.4294
421.41        71.36002
421.85        71.23114
422.30        71.30464
422.74        71.41135
423.19        71.01157
423.64        70.24933
424.08        70.08793
424.53        70.53137
424.98        70.74171
425.42        70.66853
425.87        70.98685
426.31        71.53263
426.76        71.27139
427.21        70.39394
427.65         70.1754
428.10        70.58139
428.54        70.69582
428.99        70.54927
429.44        70.35171
429.88        70.28235
430.33        70.94734
430.77        71.96542
431.22        72.36287
431.66        72.02298
432.11        71.30643
432.56         70.5151
433.00        70.19508
433.45        70.55338
433.89        71.16284
434.34        71.35358
434.78          72.419
435.23        71.62408
435.67        69.57166
436.12        70.13403
436.57        70.23931
437.01        70.90907
437.46        71.15247
437.90        71.00133
438.35        70.06413
438.79        70.32893
439.24        70.23833
439.68        70.30951
440.13        70.72082
440.57        71.38454
441.02        71.36508
441.46        70.80008
441.91        71.50317
442.35        72.90517
442.80        72.53333
443.24        70.77031
443.69        70.57549
444.13        71.86468
444.58        72.34971
445.02        71.95479
445.47        71.97332
445.91          72.436
446.36        72.71952
446.80        72.75985
447.24        73.10772
447.69        73.17178
448.13        72.98646
448.58        72.80169
449.02         72.6532
449.47        72.64943
449.91        72.52442
450.36        72.31694
450.80        72.17042
451.25        72.11977
451.69        72.08539
452.13         72.0778
452.58        72.10257
453.02        72.15379
453.47         72.2299
453.91         72.3091
454.36        72.39124
454.80        72.43106
455.24        72.27103
455.69        71.89574
456.13        71.53439
456.58        71.34518
457.02        70.60352
457.46        70.32386
457.91        70.65993
458.35        71.03279
458.79        70.97313
459.24        70.33933
459.68        69.47227
460.13        68.66974
460.57        68.36216
461.01         68.7142
461.46        68.61124
461.90         69.4481
462.34        69.98229
462.79         69.9883
463.23        70.02689
463.68        69.91281
464.12        69.63004
464.56        69.17844
465.01         68.6705
465.45        68.19264
465.89        67.85728
466.34        67.61314
466.78        67.76627
467.22        68.34419
467.67         67.1307
468.11        67.43257
468.55        67.31232
468.99        67.64133
469.44        67.63718
469.88        67.29405
470.32        66.97609
470.77        66.73975
471.21        66.59017
471.65        66.53677
472.10        66.58193
472.54        66.66673
472.98        66.66862
473.42        66.55044
473.87        66.49006
474.31        66.43377
474.75        66.06065
475.20        65.54647
475.64        65.55522
476.08         66.0254
476.52        66.10383
476.97        65.69786
477.41        65.57727
477.85        65.92292
478.29        65.06578
478.74        65.42007
479.18        65.92809
479.62        65.58491
480.06        65.63898
480.50        65.52647
480.95         65.6801
481.39        66.11135
481.83        65.14377
482.27        65.39428
482.72        65.64355
483.16        65.14252
483.60        65.13866
484.04        65.17702
484.48        65.52332
484.93          65.876
485.37        65.47893
485.81        64.99201
486.25        64.65974
486.69         66.5669
487.14        67.82713
487.58        65.70982
488.02        64.93874
488.46        64.17559
488.90        64.41762
489.34        65.25052
489.79         65.8502
490.23        65.40762
490.67        64.83967
491.11        64.24706
491.55        64.16103
491.99        64.49352
492.43        64.41706
492.88        63.92417
493.32        63.64908
493.76        63.67113
494.20        63.71697
494.64        63.76615
495.08        64.01548
495.52        64.34665
495.96        64.26358
496.41        63.85332
496.85        63.86655
497.29         64.1503
497.73        64.21677
498.17        63.32844
498.61        63.20187
499.05        63.57782
499.49        63.79335
499.93        63.58318
500.37        63.62203
500.82         63.8139
501.26        63.83194
501.70        63.69946
502.14        63.67849
502.58        63.79925
503.02        63.91943
503.46        64.03374
503.90        64.23557
504.34        64.42447
504.78        64.38869
505.22        64.10457
505.66        63.63186
506.10         63.1344
506.54        62.86156
506.98        62.82714
507.42        62.95078
507.86        63.21371
508.30        62.99421
508.74        63.39784
509.18        63.44408
509.62        63.45805
510.06        63.42756
510.50        63.36423
510.94        63.24594
511.38        63.09885
511.82        63.00626
512.26        62.98671
512.70        63.02457
513.14        63.09021
513.58        63.16122
514.02        63.22789
514.46        63.23428
514.90        63.16576
515.34        63.34048
515.78        63.22588
516.22         63.2276
516.66        63.18376
517.10         63.1549
517.54        63.06279
517.98        62.98779
518.42        62.90627
518.86        62.80242
519.30        62.68266
519.74        62.55495
520.18        62.46087
520.62        62.46057
521.06        62.56108
521.50        62.74303
521.93        62.94522
522.37        63.04669
522.81        63.02716
523.25         62.9162
523.69        62.77865
524.13        62.72002
524.57        62.76061
525.01        62.85777
525.45        62.96037
525.89        62.98675
526.32        62.90837
526.76        62.77748
527.20        62.60894
527.64        62.42904
528.08        62.25802
528.52        62.08909
528.96        61.96045
529.40        61.93224
529.83        62.00502
530.27        62.16555
530.71        62.34174
531.15        62.42188
531.59        62.38114
532.03        62.25053
532.46        62.07933
532.90        61.99198
533.34        62.00616
533.78        62.04856
534.22        62.08856
534.66        62.15726
535.09        62.19455
535.53        62.07402
535.97        61.83134
536.41        61.68224
536.85        61.65114
537.28        61.62342
537.72        61.61129
538.16        61.68321
538.60        61.83071
539.04        62.02805
539.47        62.20681
539.91        62.30187
540.35        62.28398
540.79        62.17885
541.22        62.02832
541.66        61.92234
542.10        61.87932
542.54        61.87629
542.97        61.88448
543.41        61.88644
543.85        61.86553
544.29        61.84252
544.72        61.80806
545.16        61.78158
545.60        61.75539
546.04        61.72899
546.47        61.72327
546.91        61.76826
547.35        61.85928
547.79        61.98454
548.22        62.10089
548.66        62.12572
549.10        62.11545
549.53        62.06644
549.97        62.00151
550.41        61.82599
550.84        61.62363
551.28        61.55556
551.72        61.59467
552.15        61.72033
552.59        61.99173
553.03        61.55318
553.46        62.22136
553.90         62.0721
554.34        62.04693
554.77        61.82914
555.21        61.63687
555.65        61.58992
556.08        61.68124
556.52        61.78981
556.96        61.84647
557.39        61.96138
557.83        62.06738
558.27        61.81697
558.70        61.32074
559.14        61.14058
559.57        61.27424
560.01        61.35855
560.45        61.37374
560.88        61.50307
561.32        61.73137
561.75        61.92002
562.19        62.04369
562.63         61.9766
563.06        61.77882
563.50        61.76969
563.93         61.8704
564.37        61.84901
564.80        61.72826
565.24        61.54187
565.68        61.20589
566.11        61.82462
566.55        61.18554
566.98        61.14478
567.42        61.13217
567.85        61.24483
568.29        61.49821
568.72        61.85187
569.16        62.30909
569.60        62.63789
570.03        62.55882
570.47         62.7371
570.90        63.21291
571.34        62.16624
571.77        62.74058
572.21         63.0337
572.64        62.80913
573.08        62.98756
573.51        62.41285
573.95        62.52856
574.38        63.23097
574.82        63.10452
575.25        63.07323
575.69        63.40604
576.12        63.00306
576.56         62.1675
576.99        62.49854
577.42        62.61543
577.86        62.82513
578.29        63.78218
578.73        63.84864
579.16        63.62544
579.60        62.72717
580.03        62.64597
580.47        62.60522
580.90        63.29296
581.33        63.36908
581.77        63.60211
582.20        63.56042
582.64         64.2515
583.07        63.65704
583.51        63.28615
583.94        62.81875
584.37        62.62236
584.81        62.86625
585.24        62.94963
585.68        62.75438
586.11        63.22313
586.54        63.34802
586.98        62.32156
587.41        62.01125
587.85        62.34906
588.28        62.74099
588.71         62.3558
589.15        62.06776
589.58        62.39974
590.01        62.06416
590.45         61.7472
590.88        62.79744
591.31        62.58387
591.75        61.82231
592.18        61.42693
592.61        61.58231
593.05        62.23669
593.48        62.75493
593.91        62.78833
594.35        62.69097
594.78        62.08744
595.21        61.35279
595.65        61.60273
596.08        62.85907
596.51         62.6288
596.94        62.10501
597.38        61.70921
597.81        61.80228
598.24        62.37314
598.68         62.0545
599.11        61.57735
599.54        63.02374
599.97        62.47867
600.41        62.37062
600.84        61.77806
601.27        62.09395
601.70        62.13264
602.14        62.04672
602.57        61.83884
603.00        61.65775
603.43        61.48468
603.87        62.23299
604.30        62.37675
604.73        62.30919
605.16         61.4438
605.60        61.50908
606.03        61.28803
606.46        61.21518
606.89        61.39014
607.32        61.50481
607.76        61.34262
608.19        61.65148
608.62        61.58604
609.05        61.47064
609.48        61.51073
609.92         62.5115
610.35        61.90624
610.78        61.29125
611.21        61.32236
611.64        61.26254
612.07        61.52256
612.50        61.38995
612.94        61.41653
613.37        61.46153
613.80        61.24172
614.23        60.89861
614.66        60.76388
615.09        61.18975
615.52        61.32819
615.96        61.20412
616.39        61.22985
616.82        61.44504
617.25        60.87019
617.68        60.85671
618.11         60.8485
618.54        61.16843
618.97         61.3008
619.40        61.12672
619.84        61.15652
620.27        60.83413
620.70        60.85782
621.13        60.97668
621.56        60.54535
621.99        59.70266
622.42        59.56376
622.85        60.14899
623.28        60.07376
623.71        59.95935
624.14        60.15879
624.57        60.56462
625.00        60.21926
625.43         60.5326
625.86        60.33217
626.29        60.10441
626.72        60.07981
627.15        60.16565
627.58        60.13569
628.01        60.37153
628.44        60.34037
628.87        60.18014
629.30        59.97456
629.73        59.80551
630.16        59.73592
630.59        59.78508
631.02        59.94474
631.45        60.14689
631.88        60.26715
632.31        60.26974
632.74        60.19157
633.17         60.0647
633.60        59.94373
634.03        59.85327
634.46        59.77063
634.89        59.70008
635.32        59.66599
635.75        59.67122
636.18        59.64826
636.61        59.60902
637.04        59.60712
637.47        59.64172
637.89        59.68874
638.32        59.70297
638.75         59.6723
639.18        59.59312
639.61        59.47355
640.04        59.35308
640.47        59.29305
640.90        59.30852
641.33        59.38758
641.76        59.49105
642.18         59.5587
642.61        59.55429
643.04        59.49976
643.47        59.43726
643.90        59.43681
644.33        59.50815
644.76        59.62392
645.18        59.72942
645.61        59.72005
646.04        59.58667
646.47        59.37809
646.90        59.15582
647.33        59.00472
647.75        58.92852
648.18        58.95776
648.61        59.11276
649.04        59.17791
649.47        59.08736
649.89        59.83314
650.32        59.73805
650.75        59.76167
651.18         59.4897
651.61         59.3074
652.03        59.31508
652.46         59.3975
652.89        59.51371
653.32        59.69358
653.74        60.00428
654.17        59.55539
654.60          59.635
655.03        59.73354
655.46        59.25031
655.88        59.42665
656.31         62.0304
656.74        66.01804
657.16        66.41131
657.59        66.34702
658.02        62.01424
658.45        60.94083
658.87         60.2509
659.30        59.95231
659.73        59.81924
660.15        60.50478
660.58        59.57823
661.01        59.47765
661.44        59.47965
661.86        59.26462
662.29        58.81741
662.72        59.21307
663.14        59.25898
663.57        59.23436
664.00        58.90733
664.42        58.92457
664.85        59.30053
665.27        59.67902
665.70        59.90072
666.13        59.93606
666.55        59.75949
666.98        59.31732
667.41        58.74421
667.83        58.64734
668.26        58.47457
668.69        58.65448
669.11        58.92327
669.54        59.12698
669.96        59.21502
670.39        59.27501
670.82        59.33548
671.24        59.30743
671.67        59.25107
672.09        59.36955
672.52        59.62262
672.94         59.7179
673.37        59.64103
673.80        59.54076
674.22        59.46151
674.65        59.37715
675.07        59.31751
675.50        59.27871
675.92        59.24549
676.35         59.1806
676.77         59.0817
677.20        58.96291
677.62        58.85701
678.05        58.81244
678.47        58.83813
678.90        58.92263
679.32        59.02945
679.75        59.11326
680.17        59.15268
680.60        59.15859
681.02        59.15855
681.45        59.18149
681.87        59.24361
682.30        59.35815
682.72        59.49675
683.15        59.49395
683.57        59.38839
684.00        59.37902
684.42        59.48289
684.85        59.56622
685.27        59.61918
685.70        59.73779
686.12        59.87202
686.54        59.91218
686.97        59.84111
687.39        59.69782
687.82        59.52576
688.24        59.41316
688.66        59.38322
689.09        59.41236
689.51        59.47808
689.94        59.51527
690.36        59.51271
690.78        59.47254
691.21        59.43639
691.63        59.46209
692.06        59.56096
692.48        59.72134
692.90        59.86168
693.33         59.8586
693.75        59.69118
694.17         59.3751
694.60        59.05245
695.02        58.95723
695.44        59.11053
695.87        59.45657
696.29        59.84069
696.71        59.82365
697.14        59.47449
697.56        59.32815
697.98        59.42765
698.41        59.58784
698.83        59.48754
699.25        59.66001
699.68          59.909
700.10        59.98758
700.52        59.84053
700.94        59.56358
701.37        59.27685
701.79        59.16832
702.21        59.27446
702.64         59.5152
703.06        59.79628
703.48        59.94822
703.90        59.92375
704.33        59.78761
704.75        59.58611
705.17        59.38372
705.59        59.21997
706.01        59.07229
706.44         58.9934
706.86        59.08256
707.28        59.33043
707.70        59.71618
708.12        60.13009
708.55        60.35876
708.97        60.37528
709.39        60.28415
709.81        60.15044
710.23         60.0462
710.66        60.00909
711.08        60.05127
711.50        60.11198
711.92        60.09578
712.34        59.98955
712.76        59.84178
713.19        59.69147
713.61        59.63124
714.03        59.67231
714.45        59.78635
714.87        59.95503
715.29        60.15627
715.71        60.36621
716.13        60.57317
716.56        60.73732
716.98         60.8558
717.40        60.88435
717.82        60.86917
718.24        60.80852
718.66        60.50574
719.08        60.30133
719.50        59.97927
719.92        59.71175
720.34        59.60384
720.76        59.67682
721.19        59.87102
721.61        60.15279
722.03         60.4249
722.45        60.63432
722.87        60.79122
723.29        60.85355
723.71        60.76124
724.13        60.52449
724.55        60.17599
724.97        59.80943
725.39        59.58717
725.81        59.55566
726.23         59.6527
726.65        59.83134
727.07        60.14106
727.49        60.32761
727.91        60.57943
728.33        60.79993
728.75        60.94386
729.17        60.99695
729.59        60.95485
730.01        60.85509
730.43        60.79749
730.85        60.80823
731.27           60.81
731.69        60.75611
732.10        60.85844
732.52        60.64274
732.94        60.52571
733.36        60.42004
733.78        60.30062
734.20        60.17052
734.62        60.25074
735.04        60.61134
735.46        60.23239
735.88        60.88974
736.30        61.09446
736.72        61.33471
737.13        61.54457
737.55        61.61916
737.97        61.57416
738.39        61.40157
738.81         60.9209
739.23        60.34103
739.65        60.45819
740.06        61.10756
740.48        61.38168
740.90        61.19804
741.32        61.07249
741.74        61.07605
742.16        61.07191
742.57        61.08334
742.99        61.13135
743.41         61.1745
743.83        61.13441
744.25        61.00137
744.67        60.79034
745.08        60.59701
745.50        60.55448
745.92        60.69469
746.34        60.96687
746.75        61.25275
747.17        61.35202
747.59        61.22924
748.01        60.94875
748.42        60.62488
748.84        60.46431
749.26        60.52055
749.68        60.65686
750.09        60.80511
750.51        61.02407
750.93        61.19497
751.35        61.00147
751.76        60.53733
752.18        60.26961
752.60        60.24134
753.01        60.22556
753.43        60.17276
753.85        60.13016
754.27        60.09515
754.68        60.08044
755.10        60.10013
755.52        60.16547
755.93        60.26259
756.35        60.36892
756.77           60.54
757.18        60.69949
757.60        60.81895
758.02        61.24066
758.43         61.8701
758.85        61.12745
759.26        61.18903
759.68        60.74813
760.10        60.80037
760.51        61.01895
760.93        61.37548
761.34        61.40516
761.76        61.14569
762.18        61.22454
762.59        61.61803
763.01        61.63116
763.42        61.32175
763.84        61.17058
764.26        61.23343
764.67        61.23619
765.09        61.18725
765.50        61.08005
765.92         60.9613
766.33        60.87159
766.75        60.76597
767.16        60.70064
767.58        60.64632
768.00        60.51062
768.41        60.39096
768.83        60.63412
769.24        61.09876
769.66        61.26101
770.07        61.10912
770.49         60.8244
770.90        60.61217
771.32        61.05729
771.73        61.95568
772.15        62.25969
772.56        61.89805
772.97        61.39241
773.39        60.96396
773.80           60.84
774.22        61.02686
774.63        61.28652
775.05        61.46378
775.46        61.59689
775.88        61.60837
776.29        61.43707
776.70        61.17819
777.12         61.0782
777.53        61.19193
777.95        61.40201
778.36        61.63512
778.77        61.74128
779.19        61.69877
779.60        61.58462
780.02        61.42556
780.43        61.33494
780.84        61.36153
781.26        61.19971
781.67        60.97586
782.09        61.47994
782.50        62.43589
782.91        62.43334
783.33        61.55584
783.74        61.20108
784.15        61.44084
784.57        61.46196
784.98        61.28676
785.39        61.31608
785.81        61.55751
786.22        61.90899
786.63        62.26568
787.04        62.45712
787.46        62.45359
787.87        62.28571
788.28        62.08004
788.70        61.99473
789.11         62.0438
789.52        62.25663
789.93        62.51209
790.35        62.47326
790.76        62.16448
791.17        61.93583
791.58        61.86654
792.00        61.75023
792.41        61.61555
792.82        61.75627
793.23        62.07286
793.65        61.93375
794.06        61.49118
794.47        61.67571
794.88        62.35798
795.29        62.62705
795.71        62.36238
796.12        62.20784
796.53        62.21166
796.94         62.0702
797.35        61.88139
797.76        62.09419
798.18        62.58721
798.59        62.81645
799.00        62.69978
799.41        62.51812
799.82        62.35461
800.23        62.23417
800.64        62.18978
801.06        62.18306
801.47        62.21356
801.88        62.19846
802.29        62.11911
802.70        62.00533
803.11        61.88909
803.52        61.81919
803.93        61.82648
804.34        61.89646
804.75        62.02507
805.17        62.26451
805.58        62.64232
805.99        62.90149
806.40        63.03254
806.81        63.54108
807.22        64.16454
807.63        63.73625
808.04         62.4938
808.45        61.86767
808.86        62.00273
809.27        62.16711
809.68         62.2253
810.09        62.27757
810.50        62.27155
810.91        62.18599
811.32        62.10731
811.73        62.16939
812.14        62.39144
812.55        62.72171
812.96        63.04295
813.37         63.1414
813.78        62.96497
814.19        62.61004
814.60        62.19004
815.01        61.84958
815.42        61.62965
815.83        61.48384
816.24        61.43159
816.65         61.5048
817.05        61.70104
817.46        61.99349
817.87        62.29524
818.28        62.42582
818.69        62.35175
819.10        62.09729
819.51        61.81563
819.92        61.79388
820.33        62.09579
820.74        62.62508
821.14        63.17848
821.55        63.42602
821.96        63.29221
822.37        62.88765
822.78        62.37835
823.19        62.04465
823.60        61.98561
824.00        62.14126
824.41        62.39676
824.82         62.6491
825.23        62.83294
825.64         62.9795
826.04        63.09025
826.45        63.12641
826.86        63.09999
827.27        63.01829
827.68        62.88162
828.08        62.72941
828.49        62.53781
828.90        62.32407
829.31        62.17278
829.72        62.21312
830.12        62.48498
830.53         62.9088
830.94        63.32875
831.35        63.43112
831.75         63.1573
832.16        62.57541
832.57        61.92729
832.97        61.58398
833.38        61.63442
833.79        61.94532
834.20        62.35635
834.60        62.60904
835.01        62.63358
835.42        62.56234
835.82        62.44127
836.23        62.27447
836.64        62.12697
837.04        61.95563
837.45        61.92256
837.86        62.35572
838.26        63.30192
838.67        64.62038
839.08        65.90285
839.48         66.3742
839.89        65.83843
840.29         64.5667
840.70        63.15345
841.11        62.29332
841.51        62.17274
841.92        62.57475
842.33         63.2822
842.73        63.90223
843.14        64.17764
843.54        64.27359
843.95        64.26405
844.35         64.3093
844.76        64.43612
845.17        64.57231
845.57         64.6397
845.98        64.50856
846.38        64.18687
846.79        63.73081
847.19        63.28775
847.60        63.06336
848.00         63.1102
848.41        63.33362
848.81        63.63229
849.22        63.75626
849.62         63.6738
850.03        63.45775
850.43         63.1757
850.84        62.87283
851.24         62.6335
851.65        62.38618
852.05        62.30799
852.46        62.60236
852.86        63.26483
853.27        64.18465
853.67        65.03426
854.07        65.47539
854.48        65.42521
854.88        65.00255
855.29        64.34054
855.69        63.81976
856.10         63.5206
856.50        63.42528
856.90        63.42924
857.31        63.36747
857.71        63.23597
858.12        63.03775
858.52        62.87364
858.92        62.78812
859.33        62.77629
859.73        62.85107
860.13        62.88875
860.54        62.71743
860.94        62.35312
861.34        61.84616
861.75        61.36409
862.15        61.21852
862.55        61.45553
862.96        61.94069
863.36        62.54699
863.76        62.97431
864.17        63.10664
864.57        63.06578
864.97        62.83858
865.38        62.42064
865.78        61.88044
866.18        61.20272
866.58        60.60058
866.99        60.45392
867.39        60.85463
867.79        61.68673
868.19        62.63143
868.60         63.1708
869.00        63.20307
869.40        62.82326
869.80        62.25728
870.21        61.95935
870.61        62.12802
871.01        62.56356
871.41        63.00084
871.81        63.06905
872.22         62.6959
872.62         62.0166
873.02        61.26781
873.42         60.8377
873.82        60.84277
874.22        61.15112
874.63        61.56014
875.03        61.77145
875.43        61.68519
875.83        61.40997
876.23        61.06635
876.63        60.83382
877.03        60.77517
877.44         60.8022
877.84        60.88956
878.24        61.03473
878.64        61.16082
879.04        61.10639
879.44        60.97028
879.84        61.02313
880.24        61.26815
880.64        61.58711
881.04        61.75388
881.44        61.44193
881.84        60.61759
882.24        59.42353
882.65        58.23722
883.05        57.62885
883.45        57.74146
883.85        58.43323
884.25        59.38903
884.65        60.05447
885.05        60.25016
885.45        60.11359
885.85        59.87873
886.25        59.91705
886.65        60.30679
887.05         60.9006
887.45        61.47303
887.85        61.67275
888.25        61.41254
888.65        60.83025
889.04        60.14309
889.44        59.69778
889.84        59.57941
890.24        59.69606
890.64        59.91099
891.04        59.99911
891.44        59.89996
891.84        59.70154
892.24        59.50658
892.64         59.4533
893.04        59.58306
893.44        59.85514
893.83        60.20935
894.23        60.50769
894.63        60.71777
895.03        60.83401
895.43         60.9412
895.83        61.18557
896.23        61.56675
896.63        62.01643
897.02        62.31148
897.42        62.13048
897.82        61.44391
898.22         60.4244
898.62        59.35979
899.01        58.66163
899.41         58.4534
899.81        58.60478
900.21        58.99316
900.61        59.41032
901.00        59.75319
901.40        60.05473
901.80        60.27719
902.20         60.3596
902.59        60.30569
902.99         60.1143
903.39        59.82605
903.79        59.52616
904.18        59.25425
904.58        59.01593
904.98        58.88559
905.38        58.96737
905.77        59.26852
906.17        59.77736
906.57        60.31977
906.96        60.60314
907.36          60.541
907.76        60.20778
908.15        59.85206
908.55        59.85921
908.95        60.31378
909.34        61.10057
909.74        61.89038
910.14         62.2274
910.53        61.97449
910.93        61.31094
911.33        60.48198
911.72        59.84882
912.12        59.58169
912.52        59.57848
912.91         59.7222
913.31         59.8504
913.70        59.91331
914.10        59.93141
914.49         60.0399
914.89        60.37815
915.29        60.97081
915.68        61.74809
916.08         62.4089
916.47         62.5381
916.87        62.07045
917.26        61.12642
917.66        60.12276
918.05        59.54718
918.45        59.51589
918.84        59.94812
919.24        60.50816
919.64         60.7249
920.03        60.48643
920.42           59.92
920.82        59.39119
921.21        59.40944
921.61        60.05652
922.00        61.17179
922.40        62.35088
922.79        63.01649
923.19        62.95203
923.58        62.37763
923.98        61.57508
924.37        60.89803
924.77        60.48162
925.16        60.18546
925.55        60.01541
925.95        59.96816
926.34        60.03503
926.74        60.23399
927.13         60.4263
927.52         60.3017
927.92         59.8645
928.31        59.19005
928.70        58.53983
929.10        58.30534
929.49        58.54433
929.89        59.07065
930.28        59.77451
930.67        60.35411
931.07        60.66333
931.46        60.87849
931.85        60.84604
932.24        60.37012
932.64        59.53008
933.03        58.36567
933.42        57.38759
933.82        57.34226
934.21        58.33989
934.60        60.21352
934.99         62.3129
935.39        63.44089
935.78         63.2775
936.17         62.0522
936.56         60.4353
936.96        59.51303
937.35        59.56683
937.74        60.27879
938.13         61.0957
938.53        61.15636
938.92         60.2928
939.31        58.88557
939.70        57.44599
940.09         56.6673
940.49        56.69344
940.88        57.31584
941.27        58.27384
941.66        59.09625
942.05        59.58533
942.44        59.87896
942.84        60.05236
943.23         60.2173
943.62        60.41564
944.01        60.53116
944.40        60.59129
944.79        60.68779
945.18        60.81262
945.57        60.96323
945.97        60.94804
946.36        60.52922
946.75        59.67287
947.14        58.55745
947.53        57.47741
947.92         56.8291
948.31        56.70765
948.70        57.00176
949.09        57.59076
949.48        58.25235
949.87        58.86671
950.26        59.45425
950.65        59.96714
951.04         60.3467
951.43        60.56483
951.82         60.5907
952.21        60.44463
952.60        60.19043
952.99        59.89001
953.38        59.59995
953.77        59.35354
954.16        59.18378
954.55        59.09847
954.94        59.05576
955.33        59.14486
955.72        59.50525
956.11        60.11766
956.50        60.93227
956.89        61.57744
957.28        61.44933
957.66        60.45132
958.05        58.83911
958.44        57.16919
958.83        56.23549
959.22        56.19402
959.61        56.83585
960.00        57.75644
960.39        58.18978
960.78         57.9026
961.16        57.15516
961.55        56.32629
961.94        55.89766
962.33        55.99773
962.72        56.46136
963.11        57.12607
963.49        57.72047
963.88        58.03072
964.27        58.12885
964.66        58.11689
965.04        58.17076
965.43        58.28651
965.82        58.45158
966.21        58.47427
966.60        58.04372
966.98        57.14108
967.37        55.98965
967.76        55.00127
968.15        54.67232
968.53        55.08421
968.92        56.11737
969.31        57.40549
969.69         58.1965
970.08        58.14365
970.47        57.44722
970.86        56.60286
971.24        56.33519
971.63        56.79518
972.02        57.79734
972.40        58.88538
972.79        58.96753
973.17        57.86284
973.56        56.02435
973.95        54.20277
974.33        53.33031
974.72        53.58402
975.11        54.65982
975.49        56.17402
975.88        57.31227
976.26         57.7788
976.65        57.76669
977.04        57.46461
977.42        57.15235
977.81        56.91898
978.19        56.62679
978.58        56.47063
978.96        56.75125
979.35         57.4733
979.74        58.59872
980.12        59.80973
980.51        60.28175
980.89        59.93601
981.28        58.99367
981.66        57.91191
982.05        57.32277
982.43        57.38758
982.82        57.88682
983.20        58.74661
983.59        59.71957
983.97        60.71909
984.35        61.81398
984.74        62.64991
985.12        62.87291
985.51        62.36878
985.89        61.23096
986.28        60.04906
986.66        59.66543
987.04        60.31023
987.43        61.76255
987.81        63.43805
988.20        64.07682
988.58        63.33795
988.96        61.57389
989.35        59.54067
989.73        58.31279
990.12        58.11999
990.50        58.68596
990.88        59.48245
991.27        59.59732
991.65        58.80122
992.03        57.45788
992.42        56.15807
992.80        55.66742
993.18        56.15388
993.56        57.36669
993.95        58.79434
994.33        59.64835
994.71        59.55035
995.10        58.87272
995.48        57.99952
995.86        57.58305
996.24        57.78305
996.63        58.20818
997.01        58.93322
997.39        59.78861
997.77        60.57761
998.15        61.45833
998.54        61.89222
998.92        60.94473
999.30        58.73976
999.68        55.68167
1000.06        52.98933
1000.45        52.40712
1000.83          54.356
1001.21        58.43887
1001.59        63.62176
1001.97        67.25189
1002.35        68.11414
1002.73        66.94979
1003.12        64.82713
1003.50        63.07718
1003.88         62.2175
1004.26        61.68358
1004.64        61.64692
1005.02        62.48462
1005.40        64.11385
1005.78        66.56878
1006.16        68.79196
1006.54        69.03214
1006.92        67.11025
1007.30        63.63062
1007.69        60.00254
1008.07        58.08477
1008.45        58.44643
1008.83        60.61635
1009.21        63.79093
1009.59        65.92876
1009.97        66.00211
1010.35        64.66283
1010.73        62.53318
1011.11         60.5005
1011.49        58.95284
1011.86        57.61155
1012.24        56.68954
1012.62        56.49424
1013.00        57.03151
1013.38        58.36663
1013.76        60.10095
1014.14        61.12575
1014.52        60.93068
1014.90        59.69171
1015.28        58.18323
1015.66        57.56199
1016.04        58.06217
1016.41        59.42285
1016.79        60.91941
1017.17        61.30376
1017.55        60.27102
1017.93        58.26016
1018.31        56.24426
1018.69        55.54715
1019.06        56.47421
1019.44        58.81987
1019.82        61.63594
1020.20        62.72218
1020.58        61.27016
1020.95        57.97523
1021.33        54.64584
1021.71        53.24119
1022.09        54.06063
1022.46        56.85934
1022.84        60.30333
1023.22        61.16018
1023.60        58.33888
1023.97        52.94547
1024.35        47.99663
1024.73        46.85441
