SpectraSmart Spectrum 2.9.0.0
--------- Device Information -----------
Spectrum Name :  反射率_0
Saving Time :  2024/04/26 23:18:45
Spectro-Module Model Name : SE2030-DUVN
Spectro-Module Serial Number : OS361AC55029948
Wavelength Start : 200
Wavelength End : 1025
Wavelength Unit : Wavelength(nm)
Spectrum Unit : Reflectance(%)
-----------Spectrum Setting ------------
Integration Time : 20ms
Average : 10
Boxcar : 0
Background removal :  enabled
linearity correction :  enabled
SC :  disabled
Intensity correction :  disabled
DWT denoise :  enabled
savitzky-golay :  disabled
FFT :  disabled
Running average :  disabled
Kalman :  disabled
High pass :  disabled
---------------BEGIN--------------------
Wavelength(nm)             Reflectance(%)
200.29               0
200.75        24.01593
201.21        31.24781
201.67        38.29648
202.13         41.4367
202.58        40.30797
203.04        36.20251
203.50        30.13175
203.96        25.67708
204.42         25.6616
204.88        29.43553
205.34        35.10548
205.80        38.80626
206.26        39.05402
206.72        37.13451
207.18        34.71819
207.64        33.07265
208.10        32.30439
208.55        32.31903
209.01        31.92144
209.47        29.35319
209.93        25.60673
210.39        22.71825
210.85        21.87613
211.31        23.83884
211.77        29.57467
212.23         43.1792
212.69        77.92365
213.14         138.899
213.60        140.9217
214.06        101.3535
214.52        73.03814
214.98          59.377
215.44        52.40499
215.90        46.97196
216.36        43.09451
216.81        41.67618
217.27        43.31896
217.73        49.75286
218.19        59.37197
218.65        61.68072
219.11         53.9805
219.57        43.30277
220.02        36.93761
220.48        38.87316
220.94        48.77745
221.40        67.76737
221.86        95.06999
222.32        112.3225
222.77        104.1205
223.23        83.14503
223.69        62.73622
224.15        50.14901
224.61        44.12298
225.06        41.16928
225.52        40.44409
225.98        41.21384
226.44        42.97985
226.90        45.93212
227.36        49.05536
227.81        50.37928
228.27        49.67268
228.73        47.46743
229.19          45.182
229.65        44.53948
230.10        45.62936
230.56        47.90765
231.02        50.22263
231.48         50.7518
231.93         49.2485
232.39        46.81962
232.85        44.58704
233.31        44.01425
233.77        45.22955
234.22        47.64728
234.68        50.55261
235.14        52.96956
235.60        54.54591
236.05        55.64618
236.51        56.23322
236.97        56.27354
237.43        55.85574
237.88        54.94384
238.34        54.00244
238.80         54.1595
239.26        55.85552
239.71        59.52639
240.17        64.67529
240.63        69.62666
241.08        73.14679
241.54        74.69388
242.00        75.32218
242.46        77.84888
242.91        84.53461
243.37        95.80432
243.83        112.5012
244.28        128.5658
244.74        132.7993
245.20        124.1833
245.66        110.3557
246.11        98.49564
246.57        89.80592
247.03        82.15552
247.48        75.02534
247.94        69.09612
248.40        65.47264
248.85        63.86998
249.31        63.46305
249.77        62.87923
250.22        61.59702
250.68        59.34033
251.14        56.67311
251.59        55.80964
252.05         58.1086
252.51        62.91634
252.96        66.70179
253.42        66.70662
253.88        63.66555
254.33        58.85454
254.79         56.2295
255.25        59.09853
255.70        66.85935
256.16        77.89133
256.62        87.42998
257.07        88.34192
257.53         82.4482
257.99        74.33286
258.44         67.6599
258.90        65.52705
259.35        66.59013
259.81        69.52654
260.27         72.4245
260.72        73.01872
261.18        71.53812
261.63        68.80426
262.09         66.3475
262.55        65.15975
263.00        65.08321
263.46        65.72695
263.91        66.15858
264.37        65.60683
264.83        64.00418
265.28        61.75801
265.74        59.67045
266.19        58.35518
266.65        57.95692
267.11         58.0913
267.56        58.33651
268.02        58.05488
268.47        57.08158
268.93        55.69446
269.38        54.11403
269.84        52.73075
270.30        51.64248
270.75        50.70267
271.21        49.90594
271.66        49.18498
272.12        48.49911
272.57        47.84201
273.03        47.13275
273.48        46.21224
273.94          45.131
274.39        43.91948
274.85        42.74923
275.31        41.70012
275.76        40.77981
276.22        40.00712
276.67        39.34682
277.13         38.8569
277.58        38.45916
278.04        38.15249
278.49        37.80629
278.95        37.36234
279.40         36.7514
279.86        36.08424
280.31        35.34038
280.77        34.61607
281.22        33.90474
281.68        33.26517
282.13        32.71115
282.59        32.36017
283.04        32.17307
283.50        32.12948
283.95        32.14353
284.41        32.09432
284.86        31.94205
285.32        31.75325
285.77        31.53355
286.22        31.36333
286.68        31.26392
287.13        31.16906
287.59        31.11448
288.04        31.10672
288.50        31.15739
288.95        31.22758
289.41        31.27102
289.86         31.1403
290.32         30.8699
290.77        30.50739
291.22        30.17778
291.68        30.04892
292.13         30.1547
292.59        30.46871
293.04        30.95466
293.50        31.57027
293.95        32.27872
294.40        33.10212
294.86        34.00782
295.31        34.92832
295.77        35.86493
296.22        36.81707
296.68        37.84614
297.13        39.03978
297.58        40.41752
298.04        41.93844
298.49        43.54194
298.95        45.15254
299.40        46.72001
299.85        48.26396
300.31        49.77274
300.76        51.21002
301.21        52.59387
301.67         53.9587
302.12        55.33223
302.58        56.84232
303.03        58.47068
303.48        60.21552
303.94        62.04928
304.39        63.86143
304.84        65.65186
305.30        67.45119
305.75        69.24162
306.20        71.08572
306.66        72.99371
307.11        74.89562
307.57        76.75144
308.02        78.40275
308.47        79.85412
308.93        81.16068
309.38        82.39999
309.83        83.80417
310.29        85.41992
310.74        87.17262
311.19        88.90663
311.65        90.33423
312.10        91.36451
312.55         92.0826
313.00        92.67198
313.46        93.42847
313.91         94.4031
314.36        95.52814
314.82        96.66176
315.27        97.59082
315.72        98.22919
316.18        98.67137
316.63         98.9803
317.08        99.30212
317.53        99.69051
317.99        100.0958
318.44         100.505
318.89          100.87
319.35        101.1725
319.80        101.4392
320.25        101.6921
320.70        101.9612
321.16        102.2534
321.61        102.5999
322.06        102.9521
322.51        103.2432
322.97         103.444
323.42        103.5652
323.87        103.7209
324.32        104.1211
324.78        104.7622
325.23         105.665
325.68         106.516
326.13        106.8054
326.59        106.4315
327.04        105.5773
327.49        104.6819
327.94          104.47
328.39        105.1096
328.85         106.366
329.30        107.9129
329.75         108.895
330.20        109.0375
330.66        108.5503
331.11        107.8698
331.56        107.6291
332.01        108.0217
332.46        108.8291
332.92        109.7325
333.37        110.3601
333.82        110.5161
334.27        110.3913
334.72        110.1562
335.17        110.0596
335.63        110.1973
336.08         110.544
336.53        111.0876
336.98        111.8635
337.43        112.8377
337.88        113.9675
338.34        115.1254
338.79        116.2108
339.24        117.0922
339.69        117.7744
340.14        118.1781
340.59        118.2141
341.05        117.9489
341.50        117.4491
341.95        116.9642
342.40        116.8644
342.85        117.2438
343.30        118.0066
343.75        118.9964
344.20        119.9292
344.66        120.6863
345.11        121.3149
345.56        121.7968
346.01        122.1222
346.46         122.318
346.91         122.388
347.36        122.3931
347.81        122.4548
348.26        122.5989
348.72         122.784
349.17         123.014
349.62          123.32
350.07        123.6824
350.52        124.1188
350.97        124.4313
351.42        124.3023
351.87        123.7103
352.32        122.7643
352.77         121.844
353.22        121.5106
353.67        121.8534
354.13        122.6915
354.58        123.6309
355.03        123.9649
355.48        123.5106
355.93        122.4872
356.38        121.2927
356.83        120.5274
357.28        120.3214
357.73        120.4607
358.18        120.6498
358.63        120.4244
359.08        119.6651
359.53        118.5573
359.98        117.3082
360.43        116.1966
360.88        115.3022
361.33        114.5333
361.78        113.8152
362.23        113.0461
362.68        112.2071
363.13        111.3615
363.58        110.5487
364.03        109.8061
364.48        109.1332
364.93        108.4882
365.38        107.8582
365.83        107.2423
366.28        106.6293
366.73         106.019
367.18        105.3671
367.63        104.5991
368.08        103.7141
368.53        102.7551
368.98        101.7957
369.43        100.9475
369.88         100.247
370.33         99.6666
370.78        99.18702
371.23        98.77641
371.68        98.40534
372.13        98.06117
372.58        97.70784
373.03        97.29092
373.48        96.78151
373.93        96.17377
374.38        95.45878
374.83        94.64165
375.28        93.74814
375.72        92.78722
376.17        91.86342
376.62        91.01057
377.07        90.26421
377.52        89.64899
377.97        89.16143
378.42         88.8003
378.87        88.54584
379.32        88.33749
379.77        88.21466
380.22        88.24121
380.67        88.38463
381.11        88.64666
381.56        88.71268
382.01        88.17319
382.46        87.01752
382.91        85.45863
383.36        83.96147
383.81        83.15883
384.26         83.1396
384.71        83.69111
385.15        84.47218
385.60        84.87731
386.05        84.72289
386.50        84.19168
386.95        83.44651
387.40        82.75108
387.85        82.20897
388.29        81.67829
388.74        81.27073
389.19        80.94457
389.64        80.67793
390.09        80.48313
390.54        80.30477
390.98        80.02007
391.43        79.65643
391.88         79.2374
392.33         78.8268
392.78        78.51256
393.23        78.30647
393.67        78.15516
394.12        78.08542
394.57        77.94382
395.02        77.72626
395.47        77.53112
395.91        77.37455
396.36        77.17401
396.81        76.96292
397.26        76.79263
397.71        76.64367
398.15        76.46024
398.60        76.32365
399.05        76.09237
399.50        75.82584
399.95        75.83544
400.39        76.03316
400.84        75.82211
401.29        75.25145
401.74        74.89295
402.18        74.79224
402.63        74.58467
403.08        74.31338
403.53        74.18462
403.97        74.18977
404.42        74.26122
404.87        74.32442
405.32        74.21926
405.76        73.90511
406.21        73.60253
406.66        73.35153
407.11        72.91444
407.55        72.49612
408.00        72.73882
408.45        73.50257
408.90         73.8981
409.34        73.73951
409.79        73.31048
410.24        72.80912
410.68        72.51575
411.13        72.50506
411.58        72.61121
412.03        72.71308
412.47        72.68796
412.92        72.47086
413.37         72.1349
413.81        71.79515
414.26        71.68539
414.71        71.81635
415.15        72.14702
415.60        72.51865
416.05        72.73869
416.49        72.74754
416.94        72.59343
417.39        72.39423
417.83        72.31438
418.28        72.40588
418.73        72.62067
419.17        72.87476
419.62        73.03786
420.07         73.0529
420.51        72.92867
420.96        72.78401
421.41        72.66682
421.85         72.5667
422.30         72.7487
422.74        72.98228
423.19        72.56573
423.64        71.66477
424.08        71.44951
424.53        71.95942
424.98        72.21026
425.42        72.27106
425.87        72.74959
426.31        73.47983
426.76         73.4494
427.21        72.77408
427.65        72.47097
428.10        72.59586
428.54         72.6135
428.99        72.58893
429.44        72.56078
429.88        72.62356
430.33        73.30269
430.77        74.21014
431.22        74.45074
431.66        74.00248
432.11        73.31622
432.56        72.71413
433.00        72.84396
433.45        73.79794
433.89        74.63343
434.34        74.61707
434.78        75.99281
435.23        74.70129
435.67        73.04126
436.12        73.50854
436.57        73.53888
437.01        73.97192
437.46        74.05209
437.90        73.79538
438.35        73.60677
438.79        73.61737
439.24        73.72652
439.68        73.91711
440.13        74.33875
440.57        74.92072
441.02        75.01157
441.46        74.78323
441.91        75.28394
442.35        76.17043
442.80        76.00329
443.24         74.9933
443.69        74.89693
444.13        75.68027
444.58         76.0591
445.02        75.99631
445.47        76.16605
445.91        76.62835
446.36        76.93054
446.80        77.05825
447.24        77.12057
447.69        77.13979
448.13        77.10294
448.58          77.058
449.02        77.03423
449.47        77.05055
449.91        77.04923
450.36         77.0535
450.80         77.0787
451.25        77.14033
451.69        77.17925
452.13        77.20294
452.58        77.21062
453.02        77.20862
453.47        77.21764
453.91        77.22807
454.36         77.2525
454.80        77.27473
455.24        77.10246
455.69        76.71931
456.13        76.47211
456.58        76.53871
457.02        75.55833
457.46        75.75788
457.91        75.95807
458.35        76.48238
458.79        76.44987
459.24        75.88564
459.68        75.07503
460.13        74.30581
460.57         73.9988
461.01         74.3139
461.46        74.22615
461.90        75.00159
462.34        75.55809
462.79        75.48536
463.23        75.64148
463.68        75.74074
464.12         75.5582
464.56        75.07887
465.01        74.52762
465.45        73.99121
465.89         73.6749
466.34        73.56585
466.78        73.72066
467.22         74.0985
467.67        73.61353
468.11        73.65857
468.55         73.5938
468.99         73.7767
469.44        73.72962
469.88        73.45984
470.32        73.20948
470.77        73.03187
471.21        72.93685
471.65        72.92645
472.10        72.99879
472.54        73.10072
472.98        73.11488
473.42        73.00529
473.87        72.96614
474.31        72.93053
474.75        72.52544
475.20         71.9419
475.64        71.93933
476.08        72.48402
476.52        72.55917
476.97        72.05163
477.41        72.03616
477.85        72.76286
478.29        71.30981
478.74        72.20033
479.18        72.63398
479.62        72.86272
480.06        72.73264
480.50        72.68973
480.95        72.56329
481.39        72.36951
481.83        71.98247
482.27        71.64795
482.72        72.38141
483.16         71.8494
483.60        72.01706
484.04        72.18543
484.48        72.38933
484.93        72.32207
485.37        72.42293
485.81        71.61932
486.25        70.79568
486.69        71.89395
487.14        73.01702
487.58         72.1993
488.02        72.47683
488.46        71.11688
488.90        71.24673
489.34        72.88129
489.79        73.29121
490.23        72.57898
490.67        71.82414
491.11        71.35051
491.55        71.31299
491.99        71.61877
492.43         71.5952
492.88        71.21647
493.32        71.04967
493.76        71.13885
494.20        71.20708
494.64        71.22906
495.08        71.34441
495.52        71.49932
495.96        71.42493
496.41         71.1776
496.85        71.22818
497.29        71.40208
497.73        71.43719
498.17        70.52309
498.61        70.37915
499.05        70.72767
499.49        71.03443
499.93        70.96621
500.37        70.97975
500.82        71.00545
501.26        71.05089
501.70        71.09691
502.14        71.03296
502.58        70.91564
503.02        70.92232
503.46        71.06909
503.90        71.28642
504.34        71.47809
504.78        71.49951
505.22        71.31526
505.66         70.9938
506.10        70.67106
506.54         70.4606
506.98         70.3856
507.42        70.67424
507.86        70.94972
508.30         70.7987
508.74        70.98153
509.18        70.83186
509.62        70.67452
510.06        70.58745
510.50        70.60726
510.94        70.68237
511.38         70.7726
511.82        70.85104
512.26        70.91663
512.70        70.94205
513.14        70.91162
513.58        70.97086
514.02        71.15841
514.46        70.79641
514.90        70.98204
515.34        71.05649
515.78        71.04688
516.22        71.14853
516.66        71.22646
517.10         71.1878
517.54        71.01008
517.98        70.75329
518.42        70.48787
518.86        70.31004
519.30        70.25178
519.74        70.31282
520.18        70.41314
520.62        70.55791
521.06        70.70824
521.50        70.87673
521.93        71.03367
522.37        71.10976
522.81         71.1018
523.25        71.01435
523.69        70.90175
524.13        70.85756
524.57        70.89635
525.01        70.98589
525.45         71.0676
525.89         71.0432
526.32        70.88736
526.76        70.66453
527.20        70.41505
527.64        70.20534
528.08        70.06329
528.52        69.96749
528.96        69.93626
529.40        69.99866
529.83         70.1413
530.27        70.35587
530.71        70.56681
531.15        70.65992
531.59         70.6113
532.03        70.45111
532.46        70.23394
532.90        70.10015
533.34        70.07258
533.78        70.07442
534.22        70.07666
534.66        70.12044
535.09        70.13899
535.53         69.9864
535.97        69.70268
536.41        69.52998
536.85        69.49422
537.28        69.46842
537.72        69.45761
538.16        69.52431
538.60        69.66041
539.04         69.8445
539.47        70.01936
539.91        70.14294
540.35        70.18526
540.79         70.1588
541.22          70.092
541.66        70.05698
542.10         70.0619
542.54        70.08838
542.97        70.09798
543.41        70.06281
543.85        69.97095
544.29        69.85448
544.72         69.7298
545.16        69.65972
545.60         69.6447
546.04        69.67303
546.47        69.75142
546.91        69.88182
547.35        70.04617
547.79        70.23923
548.22        70.40896
548.66        70.45872
549.10        70.45286
549.53        70.38447
549.97        70.29668
550.41        70.09665
550.84        69.86921
551.28        69.85186
551.72        69.99218
552.15        70.05874
552.59        70.14782
553.03         69.8456
553.46        70.17931
553.90         70.1589
554.34        70.06054
554.77        70.03213
555.21         70.1367
555.65        69.84433
556.08        70.09415
556.52        70.07143
556.96        70.04955
557.39        70.12267
557.83        70.22491
558.27        70.06744
558.70        69.73188
559.14        69.31408
559.57        69.47118
560.01        69.52484
560.45        69.61425
560.88        69.72021
561.32         69.8503
561.75        69.94314
562.19         70.0042
562.63         70.0282
563.06        70.00711
563.50        69.95695
563.93        69.85091
564.37        69.82166
564.80        69.91065
565.24        69.93213
565.68        69.70597
566.11        70.48325
566.55        69.72598
566.98         69.4868
567.42         69.2214
567.85        69.33709
568.29        69.79153
568.72        70.19553
569.16        70.56506
569.60        70.65829
570.03        70.66634
570.47        70.75382
570.90        71.13737
571.34        69.90353
571.77        70.52648
572.21         70.8005
572.64        70.67711
573.08        70.62569
573.51        70.45234
573.95        70.34544
574.38        70.51445
574.82        70.76939
575.25        70.38508
575.69        70.58875
576.12        70.59016
576.56        69.83316
576.99        69.95332
577.42        70.32795
577.86        70.28124
578.29        70.99574
578.73        70.88342
579.16        70.81594
579.60        70.40469
580.03        70.58376
580.47        70.38024
580.90        71.04583
581.33        71.03207
581.77        71.15282
582.20        70.74956
582.64        70.98501
583.07        70.99866
583.51        70.80034
583.94        70.39359
584.37           70.59
584.81        71.04446
585.24        71.09196
585.68        70.62048
586.11        70.69855
586.54        70.83491
586.98        70.07424
587.41        69.68315
587.85        70.46427
588.28        70.20337
588.71        70.12758
589.15        69.90079
589.58        70.06707
590.01        69.87678
590.45        69.50536
590.88        70.56065
591.31         70.5275
591.75        70.09432
592.18        69.74881
592.61        69.60388
593.05         70.3584
593.48        70.85357
593.91        70.26553
594.35        70.75965
594.78        69.93908
595.21         69.4549
595.65        69.77205
596.08        71.08476
596.51        71.07076
596.94        70.33745
597.38         69.8818
597.81        69.86439
598.24        70.92249
598.68         70.1608
599.11        69.97798
599.54         71.2971
599.97        70.54783
600.41        70.38287
600.84        69.68973
601.27        70.11881
601.70        70.35611
602.14        70.47614
602.57        70.27546
603.00        69.97102
603.43        69.32873
603.87        70.34206
604.30        70.54742
604.73        70.58399
605.16        69.77003
605.60        69.91479
606.03        69.52026
606.46        69.11031
606.89        69.50127
607.32        70.21512
607.76        69.58323
608.19        70.19306
608.62        70.00638
609.05        69.95206
609.48        69.81543
609.92        70.57516
610.35        70.07163
610.78        69.72984
611.21        69.54892
611.64         69.6944
612.07        69.91654
612.50        69.78383
612.94        69.81744
613.37        69.85851
613.80        69.92603
614.23        69.39606
614.66        69.41019
615.09         69.7465
615.52        69.80188
615.96        69.53057
616.39        69.56072
616.82           69.98
617.25        69.31803
617.68        69.64244
618.11        69.69064
618.54        70.00652
618.97        70.01073
619.40        69.69869
619.84         69.7632
620.27        69.56053
620.70        69.50938
621.13        69.39186
621.56        69.05479
621.99        68.58598
622.42        68.50955
622.85        68.83567
623.28        68.74214
623.71        68.92223
624.14        68.98022
624.57        69.33662
625.00        69.42999
625.43         69.2878
625.86        69.21337
626.29        69.30136
626.72        68.59155
627.15        69.14628
627.58        69.07266
628.01        68.81683
628.44        69.41104
628.87        69.21623
629.30        68.71817
629.73        68.67585
630.16        69.01926
630.59        68.87269
631.02        69.11015
631.45        69.34509
631.88        69.46758
632.31        69.40585
632.74        69.54024
633.17        69.35587
633.60        69.12513
634.03         69.0804
634.46         68.9221
634.89        68.77009
635.32        68.65925
635.75        68.60903
636.18        68.53084
636.61        68.45033
637.04        68.45554
637.47        68.54523
637.89        68.68665
638.32        68.80425
638.75        68.82353
639.18        68.72482
639.61        68.56733
640.04        68.43098
640.47        68.25892
640.90        68.37361
641.33        68.50819
641.76        68.69069
642.18        68.82076
642.61        68.84827
643.04        68.80475
643.47        68.73178
643.90        68.70595
644.33        68.74164
644.76          68.811
645.18        68.87242
645.61        68.83939
646.04         68.7111
646.47        68.53681
646.90        68.36453
647.33         68.2581
647.75        68.20592
648.18         68.2293
648.61        68.37177
649.04         68.4361
649.47        68.31984
649.89        69.14798
650.32        68.98676
650.75        68.80655
651.18        68.25489
651.61        68.28244
652.03        68.86127
652.46        69.12352
652.89        68.97626
653.32          68.875
653.74        68.95793
654.17        68.41019
654.60        68.82827
655.03        68.81285
655.46        68.14483
655.88        68.40841
656.31        69.71058
656.74        71.16382
657.16        72.08815
657.59        73.28867
658.02        70.12927
658.45        69.69602
658.87        68.70303
659.30        68.57774
659.73        68.77441
660.15        69.64013
660.58        68.72285
661.01        68.68423
661.44        68.84824
661.86        68.69813
662.29        68.21368
662.72         68.5663
663.14        68.41695
663.57        68.30064
664.00        67.95866
664.42        67.96288
664.85        68.33487
665.27         68.7935
665.70        69.15483
666.13        69.30031
666.55        69.18472
666.98        68.77113
667.41        68.18422
667.83        68.07533
668.26        67.80157
668.69        67.87669
669.11        68.04056
669.54        68.20234
669.96        68.32693
670.39        68.46335
670.82        68.61723
671.24        68.70583
671.67        68.74567
672.09        68.83329
672.52        68.96439
672.94        68.99564
673.37        68.92931
673.80        68.83731
674.22        68.75108
674.65        68.65088
675.07        68.56691
675.50        68.49834
675.92        68.44585
676.35        68.39205
676.77        68.33816
677.20        68.28772
677.62        68.25915
678.05        68.28137
678.47        68.35062
678.90        68.45306
679.32        68.55286
679.75        68.61002
680.17        68.61012
680.60        68.57088
681.02        68.50967
681.45        68.46118
681.87        68.45332
682.30        68.43134
682.72        68.42042
683.15        68.51019
683.57        68.67166
684.00        68.67844
684.42        68.56927
684.85        68.62807
685.27        68.79309
685.70        68.98205
686.12        69.10232
686.54        69.12312
686.97        69.04021
687.39        68.83298
687.82         68.5465
688.24        68.42994
688.66        68.54969
689.09        68.24204
689.51        68.58602
689.94        68.62748
690.36        68.67699
690.78        68.70429
691.21        68.74512
691.63        68.82562
692.06        68.94025
692.48        69.09583
692.90        69.21066
693.33        69.16619
693.75        68.95049
694.17        68.57719
694.60        68.20716
695.02        68.11943
695.44        68.34139
695.87        68.75709
696.29        69.19106
696.71        69.25335
697.14        68.98469
697.56        68.65185
697.98          68.698
698.41        68.65098
698.83        68.62601
699.25        68.81879
699.68        69.09858
700.10        69.19441
700.52        69.03574
700.94        68.72585
701.37        68.41048
701.79        68.32606
702.21         68.5162
702.64        68.88332
703.06        69.29347
703.48        69.51343
703.90        69.47692
704.33        69.25957
704.75        68.95449
705.17        68.70072
705.59        68.56031
706.01        68.49802
706.44        68.50307
706.86        68.59357
707.28        68.74744
707.70        68.91468
708.12        69.09351
708.55        69.36772
708.97        69.67181
709.39        69.74554
709.81         69.5975
710.23        69.50475
710.66        69.48962
711.08        69.40842
711.50        69.26109
711.92        69.14005
712.34        69.06026
712.76        69.01878
713.19        68.99297
713.61        68.97874
714.03        68.96078
714.45        68.94953
714.87         68.9893
715.29        69.14938
715.71        69.42605
716.13        69.77308
716.56        70.08805
716.98        70.29521
717.40        70.32014
717.82        70.19925
718.24        69.96043
718.66        69.65131
719.08        69.32349
719.50        68.99918
719.92        68.74249
720.34        68.64344
720.76        68.71382
721.19        68.90067
721.61        69.19585
722.03        69.52522
722.45        69.83642
722.87        70.12601
723.29        70.30387
723.71        70.23573
724.13        69.91592
724.55        69.40247
724.97        68.85437
725.39        68.52138
725.81        68.47318
726.23        68.67495
726.65        68.95872
727.07        69.28829
727.49        69.44478
727.91        69.58245
728.33        69.69268
728.75        69.83617
729.17        70.02035
729.59        70.20102
730.01         70.3375
730.43        70.37906
730.85        70.31516
731.27        70.17038
731.69        69.98441
732.10        69.81483
732.52        69.68569
732.94        69.59258
733.36        69.52455
733.78        69.44537
734.20        69.36079
734.62        69.32438
735.04         69.3661
735.46        69.39955
735.88        69.64511
736.30        69.85426
736.72        70.07754
737.13         70.3888
737.55        70.66351
737.97        70.80433
738.39        70.77792
738.81        70.49876
739.23        70.10442
739.65        70.08562
740.06         70.3832
740.48        70.52387
740.90        70.46122
741.32        70.51296
741.74        70.68078
742.16        70.78556
742.57        70.81669
742.99        70.81297
743.41        70.77371
743.83        70.67842
744.25        70.53448
744.67        70.33438
745.08        70.16781
745.50        70.15337
745.92        70.31841
746.34        70.62651
746.75        70.93894
747.17        71.01607
747.59        70.81653
748.01        70.41199
748.42        69.97018
748.84        69.76118
749.26        69.84733
749.68        70.14123
750.09        70.49523
750.51        70.66744
750.93        70.59846
751.35        70.39948
751.76        70.14028
752.18        69.91943
752.60        69.77271
753.01        69.68873
753.43        69.64739
753.85        69.64594
754.27        69.68346
754.68        69.78083
755.10        69.91527
755.52        70.03955
755.93        70.12598
756.35        70.16362
756.77         70.2334
757.18        70.30433
757.60        70.37604
758.02        70.74222
758.43        71.29549
758.85        70.47878
759.26        70.79552
759.68        69.87963
760.10        69.70913
760.51        69.87082
760.93          70.698
761.34        70.04452
761.76        70.57577
762.18        70.60111
762.59        70.92911
763.01        71.13976
763.42        71.25739
763.84        71.28693
764.26        71.21829
764.67        71.05819
765.09        70.86925
765.50        70.60748
765.92         70.3517
766.33        70.16568
766.75        70.01574
767.16          69.949
767.58         69.9196
768.00        69.94169
768.41        70.04544
768.83        70.21175
769.24        70.39642
769.66        70.63434
770.07        70.83355
770.49        70.65765
770.90        70.26357
771.32        70.42239
771.73        71.05411
772.15        71.28907
772.56        71.10492
772.97        70.92052
773.39        70.82633
773.80        71.03183
774.22        71.11872
774.63        71.46886
775.05        71.80077
775.46        71.95212
775.88        71.84431
776.29         71.5581
776.70        71.22117
777.12        71.05808
777.53        71.13444
777.95        71.33723
778.36        71.58149
778.77        71.68091
779.19        71.60934
779.60        71.46104
780.02        71.25001
780.43        71.09155
780.84        71.04874
781.26        70.74091
781.67        70.36344
782.09         71.0004
782.50        72.30608
782.91        72.40588
783.33        71.45889
783.74        71.12692
784.15        71.48785
784.57        71.63084
784.98        71.58784
785.39        71.25446
785.81        71.64313
786.22        71.82418
786.63        72.03558
787.04         72.1563
787.46        72.18191
787.87        72.11678
788.28        72.01695
788.70         71.9673
789.11        71.96848
789.52        72.03468
789.93          72.117
790.35         72.1349
790.76        72.07787
791.17        71.92067
791.58        71.76091
792.00        71.73709
792.41        71.84171
792.82         72.0958
793.23        72.35529
793.65        72.01319
794.06        71.30331
794.47        71.38254
794.88        72.12673
795.29        72.39547
795.71        72.11023
796.12         72.0116
796.53        72.14947
796.94        72.14164
797.35        72.04189
797.76        72.23412
798.18        72.60986
798.59        72.75231
799.00        72.59956
799.41        72.36457
799.82        72.15548
800.23        72.07213
800.64        72.15021
801.06        72.32166
801.47        72.54775
801.88        72.66181
802.29        72.61852
802.70        72.47449
803.11        72.26877
803.52        72.06087
803.93         71.8896
804.34        71.74413
804.75        71.68277
805.17        71.75838
805.58         72.0691
805.99        72.48753
806.40        72.91885
806.81        73.24709
807.22        73.37328
807.63        73.15677
808.04        72.73252
808.45        72.48741
808.86         72.4984
809.27         72.6239
809.68        72.76677
810.09        72.80732
810.50        72.70604
810.91        72.50245
811.32        72.32932
811.73        72.39324
812.14        72.72767
812.55        73.25874
812.96        73.79507
813.37        73.98618
813.78         73.7394
814.19        73.19278
814.60         72.5423
815.01        72.05003
815.42        71.78393
815.83        71.66475
816.24        71.67378
816.65        71.77254
817.05        71.93408
817.46        72.15221
817.87        72.37292
818.28        72.45455
818.69        72.37169
819.10        72.13028
819.51        71.86362
819.92        71.82712
820.33        72.07915
820.74        72.54532
821.14        73.03629
821.55         73.2384
821.96        73.08536
822.37        72.67672
822.78        72.19955
823.19        71.97039
823.60        72.08473
824.00        72.47083
824.41        72.93548
824.82        73.26263
825.23         73.3558
825.64        73.27571
826.04        73.10511
826.45        72.93301
826.86        72.81808
827.27        72.74771
827.68        72.66925
828.08        72.53073
828.49        72.27503
828.90        71.94196
829.31        71.68483
829.72         71.7435
830.12        72.17641
830.53        72.85669
830.94        73.50975
831.35        73.61583
831.75         73.0816
832.16        72.05936
832.57        70.94743
832.97        70.35823
833.38        70.44749
833.79        70.99831
834.20        71.77873
834.60        72.41908
835.01        72.79038
835.42        73.04824
835.82        73.18415
836.23        73.09682
836.64         72.8335
837.04        72.36204
837.45        71.93616
837.86        72.05075
838.26        72.80885
838.67        74.04606
839.08        75.29712
839.48        75.66819
839.89        74.93945
840.29        73.43345
840.70        71.83901
841.11        70.95796
841.51        70.99363
841.92        71.68842
842.33        72.73409
842.73         73.5744
843.14        73.88775
843.54        73.89053
843.95        73.75195
844.35        73.80078
844.76        74.09662
845.17        74.49667
845.57        74.84468
845.98        74.88326
846.38         74.5769
846.79        74.02694
847.19        73.39684
847.60         72.9036
848.00        72.64143
848.41        72.54164
848.81        72.56739
849.22        72.56701
849.62        72.53719
850.03        72.49977
850.43        72.52184
850.84        72.63527
851.24        72.88538
851.65        73.17273
852.05        73.49847
852.46        73.75442
852.86        73.90227
853.27           73.97
853.67        73.90573
854.07        73.75493
854.48        73.51772
854.88         73.2415
855.29        72.91583
855.69        72.66728
856.10        72.47136
856.50        72.37023
856.90        72.38433
857.31        72.56313
857.71        72.93868
858.12        73.40582
858.52        73.83241
858.92        73.88735
859.33        73.48142
859.73        72.75977
860.13         71.8772
860.54        71.12737
860.94        70.67716
861.34        70.46061
861.75        70.44626
862.15        70.60858
862.55        70.88319
862.96        71.23193
863.36        71.64407
863.76        72.00111
864.17          72.233
864.57        72.36656
864.97        72.30196
865.38        71.92046
865.78        71.26406
866.18        70.38258
866.58        69.52031
866.99        69.10342
867.39        69.27695
867.79        69.92122
868.19        70.78205
868.60        71.43628
869.00        71.78554
869.40        71.88788
869.80        71.86189
870.21        71.93647
870.61        72.23108
871.01        72.60506
871.41        72.84287
871.81        72.65703
872.22        72.01431
872.62         71.0163
873.02        70.00475
873.42        69.54922
873.82        69.79177
874.22        70.56098
874.63        71.43847
875.03        71.76966
875.43        71.38371
875.83        70.49361
876.23        69.46864
876.63        68.87514
877.03         68.8688
877.44        69.25819
877.84        69.81688
878.24         70.1691
878.64        70.15303
879.04        69.77103
879.44        69.30659
879.84        69.27155
880.24        69.72733
880.64        70.47038
881.04        71.13902
881.44         71.1792
881.84        70.48246
882.24        69.25887
882.65        67.96778
883.05         67.3071
883.45        67.45599
883.85        68.22102
884.25        69.23764
884.65        69.87776
885.05        69.94653
885.45        69.62795
885.85        69.19033
886.25        69.04446
886.65        69.28598
887.05        69.75433
887.45        70.24136
887.85        70.42471
888.25        70.21674
888.65        69.74863
889.04        69.18446
889.44         68.7908
889.84        68.63251
890.24        68.62999
890.64        68.70676
891.04        68.74326
891.44        68.70045
891.84        68.63441
892.24        68.57418
892.64        68.54371
893.04        68.57143
893.44        68.67005
893.83         68.8604
894.23        69.12827
894.63        69.47983
895.03        69.86338
895.43        70.31985
895.83        70.92635
896.23        71.63569
896.63         72.3747
897.02        72.88811
897.42        72.80815
897.82        72.10433
898.22        70.97494
898.62        69.72866
899.01        68.81238
899.41         68.3791
899.81        68.29099
900.21        68.49648
900.61        68.89411
901.00        69.39107
901.40        69.99435
901.80        70.52817
902.20        70.70145
902.59        70.47765
902.99        69.92635
903.39        69.24998
903.79        68.80685
904.18        68.69425
904.58        68.80795
904.98        69.09699
905.38        69.48148
905.77        69.90742
906.17        70.42749
906.57        70.86476
906.96           70.92
907.36        70.53863
907.76        69.81195
908.15        69.09664
908.55         68.9509
908.95        69.49599
909.34         70.5719
909.74        71.75041
910.14        72.40258
910.53        72.31857
910.93        71.71297
911.33        70.83672
911.72        70.06837
912.12         69.6099
912.52        69.35656
912.91        69.24217
913.31        69.19359
913.70         69.1801
914.10        69.20879
914.49        69.38682
914.89        69.78079
915.29        70.39324
915.68        71.17157
916.08        71.82339
916.47         71.9573
916.87        71.52188
917.26        70.63519
917.66        69.70161
918.05        69.18317
918.45        69.19424
918.84        69.64334
919.24        70.24828
919.64         70.6423
920.03        70.71046
920.42        70.52988
920.82         70.3104
921.21        70.32105
921.61        70.60379
922.00        71.09238
922.40        71.56589
922.79         71.8024
923.19        71.70728
923.58        71.40461
923.98        71.05592
924.37        70.82349
924.77        70.77895
925.16        70.82085
925.55         70.9495
925.95        71.14662
926.34        71.38631
926.74        71.64381
927.13        71.77495
927.52        71.47868
927.92        70.79172
928.31        69.84131
928.70        68.90344
929.10        68.36703
929.49         68.3149
929.89        68.56074
930.28        69.12412
930.67        69.90653
931.07        70.76423
931.46        71.77798
931.85         72.5315
932.24        72.40569
932.64        71.39137
933.03        69.68404
933.42        67.98629
933.82        67.33669
934.21        67.94444
934.60        69.54156
934.99        71.54602
935.39        72.87158
935.78        73.18915
936.17        72.71242
936.56        71.81239
936.96        71.08125
937.35        70.71928
937.74        70.54371
938.13        70.38937
938.53        70.05404
938.92        69.50831
939.31        68.89798
939.70        68.39214
940.09        68.17818
940.49        68.26044
940.88        68.59407
941.27        69.06293
941.66        69.45377
942.05        69.68703
942.44        69.82404
942.84        69.91661
943.23        70.04729
943.62        70.24203
944.01        70.42074
944.40        70.60894
944.79        70.87099
945.18        71.18298
945.57        71.52518
945.97        71.67522
946.36        71.37093
946.75        70.55688
947.14        69.40936
947.53        68.24556
947.92        67.49741
948.31        67.27648
948.70        67.47785
949.09        67.96304
949.48        68.48234
949.87        68.90976
950.26         69.2607
950.65        69.55791
951.04        69.85059
951.43         70.1341
951.82        70.37653
952.21         70.4381
952.60        70.12202
952.99        69.45837
953.38        68.57773
953.77         67.7979
954.16        67.60258
954.55        68.08106
954.94        69.05824
955.33        70.26399
955.72        71.20109
956.11        71.65766
956.50        71.75673
956.89        71.47242
957.28        70.80791
957.66        69.85345
958.05        68.68136
958.44         67.6057
958.83        67.07475
959.22        67.15759
959.61        67.76575
960.00        68.59894
960.39        69.06712
960.78        68.96324
961.16        68.41134
961.55        67.72956
961.94        67.31522
962.33        67.28735
962.72        67.58253
963.11         67.9647
963.49        68.03948
963.88        67.63432
964.27        66.88434
964.66        66.28517
965.04        66.59097
965.43         67.8626
965.82        69.94214
966.21        72.03502
966.60        72.59378
966.98        71.20815
967.37        68.53832
967.76        65.70963
968.15        64.13454
968.53         64.0865
968.92        65.17754
969.31        66.83328
969.69        67.89654
970.08        67.84416
970.47        67.06305
970.86        66.12352
971.24        65.81638
971.63        66.32206
972.02        67.38077
972.40         68.5526
972.79        68.77779
973.17        67.86772
973.56        66.25796
973.95        64.63298
974.33        63.84072
974.72        64.04469
975.11        64.94442
975.49        66.21027
975.88        67.11652
976.26        67.41817
976.65        67.29333
977.04        66.86225
977.42        66.27859
977.81          65.623
978.19        64.82776
978.58        64.20605
978.96        64.24721
979.35        64.99635
979.74        66.34896
980.12        67.91932
980.51        68.73418
980.89        68.64619
981.28        67.91454
981.66        66.96022
982.05        66.38052
982.43        66.35528
982.82        66.66541
983.20        67.37296
983.59        68.46172
983.97        69.91624
984.35        71.72479
984.74        73.35089
985.12         74.1272
985.51        73.82807
985.89        72.62857
986.28        71.22807
986.66        70.64003
987.04        71.17116
987.43        72.55423
987.81         74.2145
988.20        74.87826
988.58        74.19266
988.96        72.47456
989.35        70.51225
989.73        69.39771
990.12        69.35385
990.50        70.12777
990.88        70.99532
991.27        70.72235
991.65        69.07673
992.03        66.55161
992.42        64.18488
992.80        63.33525
993.18        64.27761
993.56        66.64484
993.95        69.44859
994.33        70.96965
994.71        70.49664
995.10        68.65328
995.48        66.44359
995.86        65.43703
996.24        65.99727
996.63        67.50486
997.01        69.49329
997.39        70.65295
997.77        70.44136
998.15        69.45123
998.54        67.91653
998.92        65.99467
999.30        63.99497
999.68        61.87912
1000.06        60.35054
1000.45        60.40976
1000.83        62.28757
1001.21        65.88347
1001.59        70.25565
1001.97          72.992
1002.35        73.13885
1002.73        71.35686
1003.12        69.04636
1003.50        68.04955
1003.88        68.87553
1004.26        70.79375
1004.64         73.3383
1005.02        75.45345
1005.40        76.52328
1005.78        77.10621
1006.16        76.61475
1006.54        74.08829
1006.92        69.80272
1007.30        64.21371
1007.69        59.28561
1008.07        57.67994
1008.45        60.07046
1008.83        66.00936
1009.21         73.6541
1009.59        78.30989
1009.97        77.77051
1010.35          73.285
1010.73        67.13921
1011.11        62.69794
1011.49        60.88267
1011.86        60.68628
1012.24        61.33899
1012.62        61.84434
1013.00        61.91443
1013.38        61.93193
1013.76        62.28343
1014.14        63.51598
1014.52        65.63682
1014.90        68.11995
1015.28        70.09759
1015.66        70.64933
1016.04        69.65964
1016.41        67.39986
1016.79        64.55103
1017.17        62.49025
1017.55        61.73539
1017.93        62.00412
1018.31        62.70095
1018.69        62.88429
1019.06        62.33927
1019.44        61.33829
1019.82        60.35169
1020.20        60.38262
1020.58        61.65237
1020.95        63.44601
1021.33        65.27056
1021.71        66.60159
1022.09         67.4322
1022.46        68.20004
1022.84        68.49243
1023.22        67.57015
1023.60        65.41795
1023.97        62.12458
1024.35        59.52782
1024.73        59.61499
