SpectraSmart Spectrum 2.9.0.0
--------- Device Information -----------
Spectrum Name :  反射率_0
Saving Time :  2024/04/26 23:23:31
Spectro-Module Model Name : SE2030-DUVN
Spectro-Module Serial Number : OS361AC55029948
Wavelength Start : 200
Wavelength End : 1025
Wavelength Unit : Wavelength(nm)
Spectrum Unit : Reflectance(%)
-----------Spectrum Setting ------------
Integration Time : 20ms
Average : 10
Boxcar : 0
Background removal :  enabled
linearity correction :  enabled
SC :  disabled
Intensity correction :  disabled
DWT denoise :  enabled
savitzky-golay :  disabled
FFT :  disabled
Running average :  disabled
Kalman :  disabled
High pass :  disabled
---------------BEGIN--------------------
Wavelength(nm)             Reflectance(%)
200.29               0
200.75        40.18137
201.21        41.22272
201.67        42.24345
202.13        42.79079
202.58        42.82772
203.04        42.85039
203.50        43.16325
203.96        44.23972
204.42        46.33778
204.88        49.14545
205.34        52.13962
205.80        54.63152
206.26        55.96967
206.72        55.80315
207.18        54.73788
207.64        53.25021
208.10        51.31118
208.55        49.18025
209.01        45.15903
209.47        38.56968
209.93        32.52456
210.39        28.86159
210.85        28.02097
211.31        30.03023
211.77        35.69835
212.23        49.65984
212.69        85.10114
213.14        144.4927
213.60        141.4282
214.06        98.41521
214.52         70.3951
214.98        60.12693
215.44         58.7071
215.90        60.67962
216.36        64.01458
216.81        66.09372
217.27        66.23486
217.73        66.17854
218.19        65.29733
218.65        61.86544
219.11        57.74238
219.57        54.25938
220.02        53.35944
220.48        56.99403
220.94        65.36346
221.40        80.18218
221.86        101.1548
222.32        114.7873
222.77        109.3302
223.23        93.84277
223.69        78.58073
224.15        69.39963
224.61        65.20321
225.06        63.08084
225.52        62.38984
225.98        62.23856
226.44        62.26998
226.90        62.83605
227.36        63.17454
227.81        61.94605
228.27        59.36716
228.73        55.95947
229.19        53.11959
229.65        52.45384
230.10        53.89905
230.56        56.84021
231.02        59.96666
231.48        61.17725
231.93        60.07055
232.39        57.82465
232.85        55.48587
233.31        54.43867
233.77        54.89936
234.22        56.38969
234.68        58.47641
235.14        60.64593
235.60        62.69402
236.05        64.90333
236.51        67.14361
236.97        69.08838
237.43        70.56168
237.88        71.51067
238.34        72.18196
238.80        73.52817
239.26        76.06374
239.71        80.38331
240.17        86.11041
240.63        92.20212
241.08        97.77519
241.54        101.8467
242.00        105.9668
242.46        114.1603
242.91        130.1123
243.37        156.3557
243.83        192.8461
244.28        221.0168
244.74        215.0529
245.20         176.781
245.66        133.8026
246.11        108.9927
246.57        102.2135
247.03        106.8788
247.48        114.4168
247.94        111.2729
248.40        98.78989
248.85        84.90198
249.31        75.11481
249.77        72.05994
250.22        74.86463
250.68         82.1565
251.14        92.54697
251.59        99.63605
252.05        99.57362
252.51        96.09488
252.96        90.90247
253.42        86.23302
253.88        82.78159
254.33        79.35912
254.79         79.2439
255.25        85.29907
255.70        96.51986
256.16        111.4929
256.62        123.9538
257.07        124.4228
257.53         115.747
257.99          104.22
258.44        94.80659
258.90        91.69267
259.35        93.01163
259.81         96.8885
260.27        100.8823
260.72        102.1032
261.18        100.7335
261.63        97.68423
262.09        94.69562
262.55        92.72369
263.00        91.64021
263.46        91.20255
263.91        90.47932
264.37        88.89742
264.83        86.42389
265.28        83.43229
265.74        80.81226
266.19        79.16133
266.65        78.61847
267.11        78.74135
267.56        79.01329
268.02        78.66408
268.47        77.47407
268.93        75.75224
269.38         73.7437
269.84        71.91367
270.30        70.37991
270.75        68.98243
271.21        67.72662
271.66        66.53117
272.12        65.37122
272.57        64.25714
273.03        63.14331
273.48        61.90712
273.94        60.61917
274.39        59.26631
274.85        58.01341
275.31        56.89006
275.76        55.86936
276.22        54.98913
276.67        54.16304
277.13        53.42884
277.58        52.68856
278.04        51.96489
278.49        51.16794
278.95        50.33977
279.40        49.41747
279.86        48.51626
280.31         47.5436
280.77        46.53065
281.22        45.45022
281.68        44.41639
282.13        43.49944
282.59        42.92522
283.04        42.65279
283.50        42.64123
283.95        42.72137
284.41        42.65456
284.86        42.37536
285.32         41.9967
285.77        41.61077
286.22        41.44357
286.68        41.52736
287.13        41.72275
287.59        41.96179
288.04        42.07754
288.50        42.05942
288.95        41.93237
289.41        41.74178
289.86        41.44825
290.32        41.13592
290.77        40.81173
291.22        40.60148
291.68        40.66769
292.13        41.03028
292.59        41.67714
293.04        42.53623
293.50          43.511
293.95        44.54205
294.40        45.64642
294.86        46.83009
295.31        48.09013
295.77        49.43773
296.22        50.84649
296.68        52.31093
297.13        53.80546
297.58        55.34523
298.04        56.94311
298.49        58.63575
298.95        60.50402
299.40        62.52525
299.85        64.65948
300.31         66.8198
300.76        68.84306
301.21        70.70296
301.67        72.46021
302.12        74.13618
302.58        75.88045
303.03        77.67168
303.48        79.50854
303.94        81.38584
304.39        83.20618
304.84         84.9902
305.30        86.77934
305.75        88.55199
306.20        90.37968
306.66         92.2812
307.11        94.17883
307.57        96.03274
308.02        97.65575
308.47        99.04939
308.93        100.2662
309.38        101.3924
309.83        102.6957
310.29        104.2293
310.74        105.9185
311.19        107.5545
311.65        108.7661
312.10        109.4558
312.55        109.7344
313.00        109.9112
313.46        110.4666
313.91        111.4696
314.36        112.8044
314.82        114.1548
315.27        115.0252
315.72        115.2776
316.18         115.115
316.63        114.8034
317.08        114.8076
317.53        115.2533
317.99        115.9824
318.44        116.8291
318.89        117.4921
319.35         117.865
319.80        118.0429
320.25        118.1186
320.70        118.2358
321.16        118.4399
321.61        118.7295
322.06         119.018
322.51         119.188
322.97        119.2039
323.42        119.1105
323.87        119.0847
324.32        119.4306
324.78        120.1516
325.23        121.2387
325.68        122.2889
326.13        122.6426
326.59        122.1582
327.04        121.0779
327.49        119.8977
327.94        119.4379
328.39         119.899
328.85         121.002
329.30        122.4665
329.75        123.4857
330.20        123.7834
330.66        123.5636
331.11        123.1498
331.56         122.976
332.01        123.1966
332.46        123.6333
332.92        124.1189
333.37        124.5797
333.82        124.8898
334.27        125.1568
334.72        125.3786
335.17        125.5132
335.63        125.5716
336.08        125.6241
336.53        125.7866
336.98        126.3133
337.43        127.2383
337.88        128.4457
338.34        129.7325
338.79        130.8886
339.24        131.7385
339.69        132.3435
340.14        132.6435
340.59        132.5706
341.05        132.2095
341.50        131.6008
341.95        131.0342
342.40        130.9522
342.85        131.4443
343.30         132.385
343.75         133.523
344.20        134.4148
344.66        134.9172
345.11        135.1501
345.56        135.1922
346.01        135.1859
346.46        135.2133
346.91        135.2346
347.36        135.3056
347.81        135.5396
348.26         135.924
348.72         136.394
349.17        136.8686
349.62        137.2496
350.07        137.4856
350.52        137.6329
350.97        137.5337
351.42        136.9536
351.87        135.9221
352.32        134.5424
352.77        133.2562
353.22        132.7013
353.67        132.9714
354.13        133.8772
354.58        134.9238
355.03        135.2247
355.48         134.556
355.93         133.177
356.38        131.6187
356.83        130.6877
357.28        130.5474
357.73        130.9166
358.18        131.3414
358.63        131.1038
359.08        130.0283
359.53        128.3841
359.98        126.5504
360.43        125.0615
360.88        124.0476
361.33        123.3336
361.78        122.6924
362.23        121.7814
362.68        120.5315
363.13        119.0998
363.58         117.667
364.03        116.4805
364.48        115.5937
364.93        114.8962
365.38        114.2869
365.83         113.623
366.28        112.8527
366.73        112.0293
367.18        111.1549
367.63        110.2228
368.08        109.2483
368.53        108.2336
368.98        107.2351
369.43        106.3473
369.88        105.5906
370.33        104.9427
370.78        104.3542
371.23        103.7435
371.68        103.0797
372.13        102.3718
372.58        101.6436
373.03        100.9337
373.48         100.242
373.93        99.54752
374.38        98.80199
374.83        97.94199
375.28        96.97091
375.72         95.9092
376.17        94.89216
376.62        93.99794
377.07        93.26319
377.52        92.68829
377.97        92.21812
378.42        91.77525
378.87        91.33162
379.32        90.86327
379.77        90.47205
380.22        90.30763
380.67        90.35811
381.11        90.60313
381.56         90.6981
382.01        90.18066
382.46        89.02146
382.91        87.44985
383.36        85.93793
383.81        85.12987
384.26        85.11156
384.71        85.64884
385.15        86.39725
385.60        86.75328
386.05        86.52892
386.50        85.91066
386.95        85.03844
387.40        84.13949
387.85        83.33115
388.29        82.50816
388.74        81.83669
389.19        81.33689
389.64        80.99883
390.09        80.81589
390.54        80.70807
390.98        80.50838
391.43        80.21313
391.88        79.84502
392.33        79.46838
392.78        79.13324
393.23        78.84565
393.67        78.68096
394.12          78.637
394.57        78.24286
395.02        77.63241
395.47        77.54131
395.91        77.88641
396.36        77.84967
396.81        77.39864
397.26        76.97887
397.71        76.66135
398.15        76.32529
398.60         76.0748
399.05        75.89172
399.50         75.7298
399.95        75.53887
400.39        75.33552
400.84        75.01193
401.29        74.62424
401.74        74.52128
402.18        74.58471
402.63         74.0734
403.08        73.17754
403.53         72.8017
403.97        72.99483
404.42        73.27821
404.87        73.48306
405.32        73.49504
405.76        73.23205
406.21         72.8718
406.66        72.50002
407.11        71.98373
407.55        71.51839
408.00        71.67657
408.45        72.29018
408.90        72.40855
409.34        71.91518
409.79        71.32886
410.24        70.83867
410.68         70.5071
411.13        70.39746
411.58        70.47368
412.03        70.61128
412.47        70.60783
412.92        70.39018
413.37        70.05492
413.81        69.70853
414.26        69.57215
414.71        69.65777
415.15        69.91683
415.60        70.22487
416.05         70.4515
416.49        70.54388
416.94        70.52616
417.39        70.44668
417.83        70.36619
418.28        70.31273
418.73         70.2663
419.17         70.2178
419.62        70.15989
420.07        70.08326
420.51        69.97581
420.96        69.88715
421.41        69.80492
421.85        69.70157
422.30        69.72267
422.74        69.74444
423.19         69.5099
423.64        69.06911
424.08        68.88102
424.53        68.96243
424.98        69.00219
425.42        68.99489
425.87        69.18421
426.31         69.4839
426.76        69.42346
427.21        69.07557
427.65        68.96085
428.10        69.04533
428.54        69.02702
428.99        68.93671
429.44        68.61813
429.88        68.32226
430.33         68.8845
430.77        69.94356
431.22        70.59836
431.66        70.59958
432.11        69.80735
432.56        68.63688
433.00        68.24109
433.45        68.84421
433.89        69.81337
434.34        70.40442
434.78        70.92068
435.23        70.22175
435.67        68.14643
436.12        68.28696
436.57        68.41337
437.01        69.31718
437.46        69.55956
437.90        69.07352
438.35        68.71782
438.79        68.63373
439.24        68.65047
439.68        68.73851
440.13         69.1964
440.57        69.87624
441.02        69.72089
441.46        68.94934
441.91        69.48308
442.35         70.8139
442.80        70.61206
443.24        69.14444
443.69        68.90099
444.13        69.84887
444.58         70.2103
445.02        69.94199
445.47        70.01479
445.91        70.40883
446.36        70.68808
446.80         70.8111
447.24         70.8803
447.69        70.91253
448.13         70.9227
448.58        70.93606
449.02        70.91384
449.47        70.86162
449.91        70.76499
450.36         70.6506
450.80        70.50916
451.25        70.39367
451.69        70.32487
452.13        70.32146
452.58        70.36271
453.02         70.4149
453.47        70.43303
453.91        70.39517
454.36        70.32207
454.80        70.20268
455.24        69.99638
455.69        69.72313
456.13        69.43822
456.58        69.23069
457.02        68.92757
457.46        68.66999
457.91        68.89059
458.35        69.32141
458.79        69.30192
459.24        68.84694
459.68        68.05431
460.13        67.17101
460.57        67.38637
461.01         67.1362
461.46        67.56203
461.90        67.97761
462.34        68.59811
462.79        68.46536
463.23        68.42048
463.68        68.30123
464.12        68.27892
464.56        68.21394
465.01        67.41572
465.45        66.19685
465.89        65.78714
466.34        66.08405
466.78        66.38769
467.22        66.62646
467.67         65.8257
468.11        65.88969
468.55        65.88138
468.99        66.25413
469.44        66.28166
469.88        65.95732
470.32        65.70083
470.77        65.55885
471.21        65.44673
471.65        65.36401
472.10        65.33357
472.54        65.35365
472.98        65.36877
473.42        65.34773
473.87        65.49372
474.31          65.646
474.75         65.2061
475.20        64.38177
475.64        64.15196
476.08        64.55037
476.52        64.54115
476.97        64.02497
477.41        64.12788
477.85        65.01274
478.29        63.72593
478.74        64.27244
479.18        64.91738
479.62        64.63516
480.06        64.69803
480.50         64.4474
480.95        64.33549
481.39        64.40784
481.83        63.62656
482.27        63.91305
482.72        63.95276
483.16        64.02442
483.60        63.88916
484.04        64.03957
484.48        64.31917
484.93         64.7297
485.37        64.06029
485.81        63.56124
486.25        63.20679
486.69        65.07062
487.14        65.57674
487.58        64.28432
488.02         64.0369
488.46        62.89937
488.90        63.17842
489.34        63.92208
489.79        64.95345
490.23          64.438
490.67        63.83736
491.11        63.02828
491.55        62.76924
491.99        63.03967
492.43        62.97163
492.88        62.58553
493.32        62.55787
493.76        62.86228
494.20        63.06066
494.64        63.09684
495.08        63.09293
495.52        63.06799
495.96        63.00645
496.41        62.92311
496.85        62.94915
497.29        62.92722
497.73        62.79564
498.17        61.88155
498.61        61.72815
499.05        62.11167
499.49        62.46815
499.93         62.4591
500.37        62.65351
500.82        62.91839
501.26        62.75823
501.70        62.25398
502.14        62.40785
502.58        62.47217
503.02        62.61329
503.46        62.59698
503.90        62.74057
504.34        62.96886
504.78        63.00348
505.22        62.81627
505.66        62.51631
506.10        62.21423
506.54        61.99957
506.98        61.89523
507.42        62.16975
507.86        62.19457
508.30        62.31993
508.74        62.34167
509.18        62.31014
509.62        62.23223
510.06        62.12922
510.50        62.02275
510.94        61.89806
511.38        61.79313
511.82        61.77219
512.26        61.84417
512.70        61.99307
513.14        62.16578
513.58        62.27121
514.02        62.28502
514.46           62.23
514.90        62.14602
515.34         62.1018
515.78        62.11405
516.22        62.15537
516.66        62.20078
517.10        62.21141
517.54        62.17745
517.98        62.12138
518.42        62.04725
518.86         61.9586
519.30        61.86356
519.74        61.75847
520.18        61.67542
520.62        61.66348
521.06        61.72988
521.50        61.86711
521.93        62.01978
522.37        62.07582
522.81        62.02012
523.25        61.87604
523.69        61.72475
524.13        61.69672
524.57        61.80978
525.01         62.0126
525.45        62.20817
525.89        62.24016
526.32        62.07055
526.76        61.78088
527.20        61.44634
527.64        61.18722
528.08        61.04567
528.52        60.98287
528.96        60.99755
529.40         61.0882
529.83        61.23225
530.27        61.43145
530.71         61.6183
531.15        61.68836
531.59        61.62258
532.03        61.44854
532.46        61.22101
532.90        61.07629
533.34         61.0382
533.78        61.03603
534.22        61.04619
534.66        61.10472
535.09        61.15246
535.53        61.06496
535.97        60.86236
536.41        60.73389
536.85        60.69775
537.28         60.6431
537.72        60.60196
538.16        60.67442
538.60        60.85798
539.04        61.12056
539.47        61.36295
539.91        61.46794
540.35         61.4019
540.79        61.21583
541.22          60.991
541.66        60.87086
542.10        60.88452
542.54        60.99098
542.97        61.11637
543.41        61.17111
543.85        61.12191
544.29        61.01277
544.72        60.87186
545.16        60.77566
545.60        60.73635
546.04        60.73848
546.47        60.77871
546.91        60.86785
547.35        60.99443
547.79        61.09625
548.22        61.16164
548.66         61.2895
549.10        61.47578
549.53        61.39968
549.97        61.11638
550.41        60.86526
550.84        60.75031
551.28        60.71067
551.72        60.69728
552.15        60.83761
552.59        61.18158
553.03        60.57423
553.46        60.88174
553.90        60.75667
554.34        60.73544
554.77        60.67423
555.21        60.62556
555.65        60.65241
556.08         60.7268
556.52        60.89772
556.96        61.05924
557.39        60.98371
557.83        60.71532
558.27        60.46126
558.70        60.29186
559.14        60.23629
559.57        60.26913
560.01         60.3517
560.45        60.44051
560.88        60.50967
561.32        60.56887
561.75        60.60846
562.19        60.64244
562.63        60.57831
563.06         60.4649
563.50        60.52464
563.93        60.67704
564.37        60.77697
564.80        60.82459
565.24        60.74621
565.68        60.42836
566.11        61.03135
566.55        60.37814
566.98        60.16769
567.42        59.93534
567.85         60.1402
568.29        60.70235
568.72        61.10177
569.16        61.35765
569.60        61.44032
570.03         61.5226
570.47        61.59569
570.90         61.8355
571.34        60.87741
571.77        61.47406
572.21        61.75664
572.64        61.49759
573.08        61.93967
573.51        61.29138
573.95        61.20642
574.38        61.37265
574.82        61.81681
575.25        61.51537
575.69        61.51253
576.12        61.66848
576.56        60.78158
576.99        60.89036
577.42        61.40485
577.86        61.36781
578.29        62.10429
578.73        61.95887
579.16        61.80474
579.60        61.29529
580.03        61.32595
580.47        61.07115
580.90        61.97379
581.33         61.6547
581.77        62.14476
582.20        61.95594
582.64        62.26304
583.07        61.85884
583.51        61.51453
583.94        61.21614
584.37        61.19917
584.81        61.50817
585.24        61.63919
585.68        61.52997
586.11        61.46787
586.54        61.54253
586.98        60.96452
587.41        60.08889
587.85        60.92252
588.28        61.04934
588.71         60.9826
589.15         60.6753
589.58        61.01695
590.01        60.57477
590.45        60.53753
590.88        61.32504
591.31        61.27127
591.75        60.74455
592.18        60.33559
592.61        60.26527
593.05        60.76808
593.48        61.58868
593.91        61.45366
594.35         61.0685
594.78        60.45864
595.21        60.02843
595.65        60.28865
596.08        61.24114
596.51        61.25011
596.94        60.57227
597.38        60.33068
597.81        60.64089
598.24        61.01822
598.68        60.80502
599.11        60.63207
599.54        61.23272
599.97        60.63459
600.41        60.72217
600.84        60.26751
601.27        60.63585
601.70        60.65966
602.14        60.99149
602.57        60.82695
603.00        60.52288
603.43        59.97252
603.87        60.77886
604.30        61.03757
604.73        61.08784
605.16        60.48578
605.60        60.12569
606.03        59.80112
606.46        59.80026
606.89        59.76314
607.32        60.27162
607.76        60.04298
608.19        60.29727
608.62        60.38522
609.05        60.35477
609.48        60.29323
609.92        60.91839
610.35        60.44984
610.78          60.139
611.21        59.95421
611.64        60.09048
612.07        60.30141
612.50        60.18389
612.94        60.19761
613.37         60.2191
613.80        59.91332
614.23        59.42655
614.66        59.38388
615.09        59.76023
615.52        59.93354
615.96        59.83007
616.39        59.86477
616.82        60.04818
617.25        59.69874
617.68        59.64024
618.11        59.57119
618.54         59.6952
618.97        59.82865
619.40        59.92123
619.84        59.66304
620.27        59.40659
620.70        59.36363
621.13        59.55596
621.56         59.3354
621.99        58.79808
622.42        58.54517
622.85        58.69446
623.28        58.51542
623.71        58.94211
624.14        58.95913
624.57         59.3358
625.00        59.23542
625.43        59.32948
625.86        59.27035
626.29        59.32771
626.72        58.68268
627.15           59.07
627.58        59.08068
628.01        59.12144
628.44        59.10838
628.87        58.70768
629.30        58.57944
629.73        58.64381
630.16        58.66752
630.59        58.64705
631.02         58.7528
631.45        58.96753
631.88        59.10201
632.31        59.11528
632.74        59.28978
633.17        59.18244
633.60        59.12814
634.03        59.00762
634.46        58.83195
634.89        58.63718
635.32        58.50899
635.75        58.47425
636.18         58.4455
636.61        58.42774
637.04        58.46167
637.47        58.53806
637.89        58.63827
638.32        58.70532
638.75        58.70385
639.18        58.62513
639.61        58.48011
640.04        58.32317
640.47        58.24283
640.90        58.25972
641.33        58.35455
641.76        58.48157
642.18        58.55062
642.61        58.51726
643.04        58.44727
643.47         58.3944
643.90        58.26763
644.33        58.36377
644.76        58.42927
645.18        58.50337
645.61        58.49161
646.04        58.38679
646.47        58.22546
646.90        58.05211
647.33        57.93104
647.75        57.85709
648.18        57.86866
648.61        57.98414
649.04         57.9813
649.47        57.79902
649.89        58.43911
650.32        58.28781
650.75        58.25047
651.18        57.96743
651.61        57.96724
652.03        58.26054
652.46        58.46839
652.89        58.50192
653.32        58.45601
653.74        58.46188
654.17        58.01868
654.60        58.12434
655.03          58.383
655.46        57.58804
655.88          57.864
656.31        60.65556
656.74        62.57224
657.16          63.358
657.59        63.55759
658.02        59.64881
658.45        59.38572
658.87        58.77671
659.30        58.62664
659.73        58.24263
660.15        59.27156
660.58        58.04688
661.01        58.08211
661.44        58.26015
661.86        58.14248
662.29        57.68791
662.72        57.98054
663.14        57.91055
663.57        57.87714
664.00        57.64573
664.42        57.68495
664.85        58.00686
665.27        58.37753
665.70        58.65454
666.13        58.76128
666.55        58.66616
666.98        58.32996
667.41        57.84843
667.83        57.75875
668.26        57.50896
668.69        57.53909
669.11        57.63604
669.54        57.72448
669.96         57.7761
670.39         57.8644
670.82        57.98452
671.24        57.97435
671.67        57.88559
672.09        57.97811
672.52        58.22019
672.94        58.30088
673.37        58.21016
673.80        58.10805
674.22        58.04076
674.65        57.97855
675.07        57.95036
675.50        57.95599
675.92        57.97036
676.35        57.93975
676.77        57.85795
677.20        57.73909
677.62        57.62923
678.05        57.60183
678.47        57.66654
678.90        57.79881
679.32        57.94181
679.75        58.01854
680.17        58.00722
680.60        57.93779
681.02        57.85032
681.45        57.81401
681.87         57.8609
682.30        57.92926
682.72        58.01753
683.15        58.16236
683.57        58.32674
684.00        58.33554
684.42        58.23473
684.85        58.25591
685.27        58.40213
685.70        58.55283
686.12        58.64689
686.54        58.65409
686.97        58.56026
687.39         58.3934
687.82        58.18618
688.24        58.01741
688.66         57.9135
689.09        57.82627
689.51         57.7825
689.94        57.86338
690.36        58.03356
690.78        58.11569
691.21        58.10554
691.63         58.1278
692.06        58.18264
692.48        58.19297
692.90        58.14099
693.33           58.05
693.75         57.9277
694.17        57.74939
694.60        57.59039
695.02        57.58747
695.44        57.73607
695.87        57.98032
696.29        58.23296
696.71        58.22308
697.14        57.99984
697.56        57.92218
697.98        58.02545
698.41        58.07253
698.83        58.05965
699.25        58.18325
699.68        58.36094
700.10        58.41618
700.52        58.30719
700.94        58.09627
701.37        57.89096
701.79        57.86999
702.21        58.05896
702.64        58.38306
703.06        58.72326
703.48        58.87104
703.90        58.77417
704.33        58.50484
704.75        58.15931
705.17        57.88397
705.59        57.73962
706.01        57.68711
706.44        57.71684
706.86        57.84019
707.28        58.03019
707.70          58.244
708.12        58.45344
708.55        58.69012
708.97        58.89328
709.39        58.85126
709.81        58.61103
710.23        58.47745
710.66        58.48755
711.08        58.49972
711.50        58.47094
711.92        58.40997
712.34        58.31269
712.76        58.19962
713.19        58.08243
713.61        58.00882
714.03        57.98312
714.45        57.99723
714.87         58.0726
715.29        58.24481
715.71        58.50015
716.13        58.80856
716.56        59.09686
716.98        59.27906
717.40        59.28656
717.82        59.23055
718.24        59.14352
718.66        58.67305
719.08        58.51109
719.50        58.16064
719.92        57.89937
720.34        57.83518
720.76        57.98736
721.19         58.2893
721.61        58.67759
722.03        59.01299
722.45        59.22878
722.87        59.34503
723.29        59.33924
723.71        59.18782
724.13        58.91452
724.55        58.54255
724.97        58.16291
725.39        57.93247
725.81        57.89365
726.23        57.98877
726.65        58.16399
727.07         58.4516
727.49        58.60104
727.91        58.79866
728.33        58.95966
728.75        59.05643
729.17        59.08076
729.59        59.02886
730.01         58.9396
730.43        58.88224
730.85        58.87583
731.27        58.90645
731.69        58.94507
732.10        58.94048
732.52        58.88157
732.94        58.79985
733.36        58.74111
733.78        58.66429
734.20        58.56804
734.62        58.66611
735.04         59.0047
735.46        58.56002
735.88        59.05897
736.30        59.09624
736.72        59.19094
737.13        59.28707
737.55        59.33931
737.97        59.49256
738.39        59.64926
738.81        59.38309
739.23        58.83249
739.65        58.79534
740.06        59.21046
740.48        59.38523
740.90         59.2734
741.32        59.29638
741.74        59.45417
742.16        59.52448
742.57        59.49645
742.99        59.41667
743.41        59.31606
743.83        59.22651
744.25        59.16076
744.67        59.09881
745.08        59.05793
745.50         59.0457
745.92        59.06626
746.34        59.11314
746.75        59.15522
747.17        59.12952
747.59        59.03715
748.01        58.90139
748.42        58.76328
748.84        58.71759
749.26        58.78646
749.68        58.85101
750.09        58.89875
750.51        59.11648
750.93        59.38545
751.35        59.26491
751.76        58.82488
752.18        58.57596
752.60        58.55441
753.01        58.50485
753.43        58.39212
753.85        58.30524
754.27        58.25427
754.68        58.24153
755.10        58.28485
755.52        58.40053
755.93         58.5649
756.35        58.74867
756.77        58.99007
757.18        59.16128
757.60        59.23236
758.02        59.60888
758.43        60.15137
758.85        59.22845
759.26         59.1037
759.68        58.41345
760.10        58.72131
760.51        59.45841
760.93        59.19016
761.34        59.10171
761.76        59.36499
762.18        59.32996
762.59        59.25398
763.01        59.28321
763.42        59.48006
763.84        59.59876
764.26        59.61625
764.67        59.59947
765.09         59.5812
765.50        59.45336
765.92        59.29834
766.33        59.25918
766.75        59.25898
767.16        59.20993
767.58        59.06842
768.00        58.80915
768.41        58.56049
768.83        58.73395
769.24        59.19083
769.66        59.29377
770.07        59.04207
770.49         58.7738
770.90        58.65625
771.32        59.05046
771.73        59.78976
772.15        60.05725
772.56        59.79261
772.97        59.43668
773.39        59.14968
773.80        59.00304
774.22        59.03476
774.63        59.27102
775.05        59.55371
775.46        59.68366
775.88        59.58161
776.29        59.33504
776.70        59.06228
777.12        58.97349
777.53        59.12533
777.95        59.40911
778.36        59.73264
778.77        59.91349
779.19        59.91745
779.60        59.82567
780.02        59.66415
780.43        59.55276
780.84        59.54599
781.26        59.33027
781.67        59.04861
782.09        59.54005
782.50        60.52647
782.91        60.54934
783.33        59.68602
783.74         59.3584
784.15        59.63316
784.57        59.67328
784.98        59.50272
785.39        59.53878
785.81        59.78933
786.22        60.14539
786.63        60.49554
787.04        60.66081
787.46        60.61496
787.87        60.39783
788.28        60.14758
788.70        60.05208
789.11        60.13229
789.52        60.36892
789.93        60.64188
790.35        60.71338
790.76        60.57014
791.17        60.32991
791.58        60.08821
792.00        59.96937
792.41        59.96706
792.82        59.93102
793.23        59.85191
793.65        59.69701
794.06        59.58137
794.47        59.90496
794.88        60.51458
795.29        60.75856
795.71        60.55418
796.12        60.37248
796.53        60.29682
796.94        60.05333
797.35        59.80658
797.76        60.20132
798.18        61.03565
798.59        61.41658
799.00         61.2202
799.41        60.90198
799.82        60.62389
800.23        60.47035
800.64        60.50195
801.06        60.65434
801.47        60.86196
801.88        60.93665
802.29        60.82446
802.70        60.58496
803.11        60.28864
803.52          60.048
803.93        59.92534
804.34        59.89805
804.75        59.95263
805.17        60.14119
805.58        60.49165
805.99        60.70497
806.40        60.80455
806.81        61.45914
807.22        62.35114
807.63        62.03086
808.04         60.7239
808.45        60.07842
808.86        60.24477
809.27        60.35159
809.68        60.28215
810.09        60.25007
810.50        60.22401
810.91        60.15608
811.32        60.12037
811.73        60.22779
812.14        60.48712
812.55        60.85459
812.96        61.21046
813.37        61.33271
813.78        61.16405
814.19        60.79758
814.60        60.34732
815.01        59.95905
815.42        59.67777
815.83         59.4647
816.24        59.34258
816.65        59.35242
817.05        59.49879
817.46        59.74927
817.87        60.03769
818.28        60.21501
818.69        60.24685
819.10        60.15229
819.51        60.01801
819.92        60.01379
820.33        60.18172
820.74        60.46056
821.14        60.75026
821.55        60.89801
821.96        60.85988
822.37        60.66814
822.78        60.40912
823.19        60.24406
823.60         60.2224
824.00        60.31549
824.41        60.42406
824.82          60.477
825.23        60.44151
825.64        60.34727
826.04         60.2551
826.45        60.22467
826.86        60.28507
827.27        60.41917
827.68        60.56529
828.08        60.64527
828.49        60.59187
828.90        60.44498
829.31        60.29852
829.72        60.30886
830.12        60.52753
830.53         60.8554
830.94        61.16843
831.35        61.21273
831.75         60.9477
832.16        60.45092
832.57         59.8996
832.97        59.55198
833.38        59.48253
833.79        59.58894
834.20        59.82483
834.60        60.11363
835.01        60.41092
835.42        60.78149
835.82        61.11792
836.23        61.16303
836.64        60.90443
837.04        60.37622
837.45        59.87223
837.86        59.93295
838.26        60.67598
838.67        61.90953
839.08        63.18242
839.48        63.64154
839.89        63.06377
840.29        61.75962
840.70        60.33015
841.11        59.47236
841.51        59.37389
841.92        59.80909
842.33        60.55713
842.73        61.22544
843.14        61.55921
843.54        61.71955
843.95        61.78667
844.35        61.93253
844.76         62.1785
845.17        62.43314
845.57        62.60017
845.98        62.52442
846.38        62.20301
846.79        61.70635
847.19         61.1692
847.60        60.77577
848.00         60.5933
848.41        60.55159
848.81        60.61566
849.22        60.64544
849.62        60.63242
850.03        60.61304
850.43        60.59538
850.84        60.52843
851.24        60.45287
851.65        60.31466
852.05        60.26706
852.46        60.48914
852.86        60.98539
853.27        61.65614
853.67        62.24167
854.07        62.48976
854.48        62.33404
854.88        61.88093
855.29        61.22168
855.69        60.64766
856.10        60.22501
856.50        59.96699
856.90        59.83122
857.31        59.75116
857.71        59.74618
858.12        59.78765
858.52        59.91895
858.92        60.09697
859.33        60.27866
859.73        60.48621
860.13        60.61537
860.54        60.52995
860.94        60.25677
861.34        59.83707
861.75        59.41187
862.15        59.25418
862.55        59.40696
862.96        59.74813
863.36        60.21164
863.76        60.60106
864.17        60.81585
864.57        60.94125
864.97        60.86773
865.38        60.43642
865.78        59.68622
866.18        58.66042
866.58        57.66174
866.99        57.23161
867.39        57.52753
867.79        58.39481
868.19        59.48518
868.60        60.23774
869.00         60.5237
869.40        60.44512
869.80        60.19107
870.21         60.1332
870.61        60.42492
871.01        60.86738
871.41        61.21696
871.81         61.1479
872.22        60.61044
872.62          59.741
873.02         58.7967
873.42         58.1998
873.82        58.08835
874.22        58.33888
874.63        58.75063
875.03        59.01632
875.43        59.02469
875.83        58.87308
876.23        58.66037
876.63        58.54177
877.03        58.56149
877.44        58.61697
877.84        58.67589
878.24        58.73614
878.64        58.73297
879.04         58.5275
879.44        58.21552
879.84        58.06527
880.24        58.09417
880.64        58.18305
881.04        58.20401
881.44         57.9886
881.84        57.52042
882.24        56.88929
882.65        56.28325
883.05        55.98258
883.45        56.05742
883.85        56.41761
884.25         56.9451
884.65        57.43016
885.05        57.77534
885.45         58.0205
885.85        58.16087
886.25        58.19924
886.65        58.15642
887.05        58.02707
887.45        57.85802
887.85        57.74268
888.25        57.70955
888.65        57.74246
889.04        57.81924
889.44        57.92126
889.84         58.0178
890.24        58.11026
890.64         58.1672
891.04        58.13889
891.44        58.02448
891.84        57.85216
892.24        57.65881
892.64        57.49822
893.04        57.39679
893.44        57.35176
893.83        57.40291
894.23        57.55841
894.63        57.82672
895.03        58.18444
895.43        58.56888
895.83        58.88363
896.23        59.07881
896.63        59.14073
897.02        59.08018
897.42        58.95461
897.82        58.78318
898.22        58.58919
898.62         58.3335
899.01        57.94049
899.41        57.44467
899.81        56.88562
900.21        56.42997
900.61        56.34281
901.00        56.65455
901.40        57.24731
901.80        57.90409
902.20          58.271
902.59        58.26154
902.99        57.99238
903.39        57.55552
903.79        57.11039
904.18        56.73709
904.58        56.38771
904.98        56.19981
905.38        56.39179
905.77         56.9713
906.17        57.90226
906.57        58.85688
906.96         59.2721
907.36        59.00827
907.76        58.22583
908.15        57.36043
908.55        57.10514
908.95        57.62114
909.34        58.69126
909.74        59.85844
910.14        60.44212
910.53        60.22304
910.93        59.45752
911.33        58.41747
911.72        57.50366
912.12        56.92547
912.52        56.57386
912.91        56.40445
913.31        56.36629
913.70        56.43145
914.10        56.60606
914.49        56.94568
914.89        57.44559
915.29        58.08241
915.68        58.81206
916.08        59.41316
916.47        59.60258
916.87        59.34513
917.26         58.7199
917.66        58.03757
918.05        57.64766
918.45        57.64645
918.84        57.98742
919.24        58.46223
919.64        58.81605
920.03        58.96319
920.42        58.93336
920.82        58.90078
921.21        59.08603
921.61        59.51306
922.00        60.13142
922.40        60.67073
922.79        60.80466
923.19        60.43389
923.58        59.70819
923.98        58.92727
924.37        58.46721
924.77        58.42727
925.16        58.66634
925.55        59.01262
925.95        59.14943
926.34        58.98854
926.74        58.61408
927.13        58.12055
927.52        57.58631
927.92        57.11552
928.31        56.69462
928.70        56.37413
929.10        56.20833
929.49        56.18969
929.89        56.24787
930.28         56.4976
930.67        57.02316
931.07        57.76677
931.46        58.73984
931.85        59.54057
932.24        59.57766
932.64         58.8044
933.03        57.38741
933.42        55.94973
933.82        55.40287
934.21        55.93248
934.60        57.32899
934.99        59.00375
935.39        59.88062
935.78        59.67495
936.17        58.62233
936.56        57.30662
936.96        56.64518
937.35        56.86701
937.74        57.68044
938.13        58.57612
938.53        58.77845
938.92         58.1284
939.31        56.94853
939.70        55.70735
940.09        55.05101
940.49        55.10778
940.88        55.68686
941.27        56.52928
941.66        57.16492
942.05        57.41844
942.44         57.4526
942.84        57.37851
943.23        57.35402
943.62         57.4416
944.01         57.5248
944.40         57.6417
944.79        57.89126
945.18        58.25415
945.57        58.71255
945.97        59.01719
946.36          58.834
946.75        58.08471
947.14        56.94262
947.53        55.74675
947.92        54.97008
948.31        54.72814
948.70        54.90658
949.09        55.32921
949.48        55.67808
949.87        55.83838
950.26        55.88774
950.65        55.92476
951.04        56.12013
951.43        56.49467
951.82        56.93693
952.21        57.31201
952.60        57.43095
952.99        57.26625
953.38        56.92902
953.77        56.51079
954.16        56.14462
954.55        55.88102
954.94         55.6547
955.33        55.55407
955.72        55.72581
956.11        56.16648
956.50        56.85252
956.89        57.46523
957.28         57.4595
957.66        56.74311
958.05        55.54472
958.44        54.32276
958.83        53.74556
959.22        53.94421
959.61        54.71743
960.00        55.74295
960.39        56.41015
960.78        56.48072
961.16        56.11728
961.55         55.5545
961.94        55.07055
962.33        54.77369
962.72        54.61362
963.11        54.50852
963.49        54.36801
963.88        54.12426
964.27         53.8189
964.66        53.70724
965.04        54.17453
965.43        55.21521
965.82        56.77928
966.21        58.27788
966.60        58.58204
966.98        57.41104
967.37        55.22437
967.76        52.97202
968.15        51.86543
968.53        52.11879
968.92        53.43517
969.31        55.16762
969.69        56.00707
970.08        55.46793
970.47        54.01933
970.86         52.4809
971.24        51.98777
971.63         52.7884
972.02        54.55673
972.40         56.6995
972.79        57.81693
973.17        57.49447
973.56        56.19946
973.95        54.67724
974.33        53.89244
974.72        54.06433
975.11        54.87373
975.49        55.96346
975.88         56.6168
976.26        56.61156
976.65         56.1617
977.04        55.53568
977.42        55.09246
977.81        54.91809
978.19        54.86357
978.58        54.96645
978.96        55.26328
979.35        55.69074
979.74        56.25001
980.12        56.80957
980.51        56.90884
980.89        56.57256
981.28        55.92632
981.66        55.19979
982.05        54.67852
982.43        54.46358
982.82        54.44778
983.20         54.7663
983.59        55.58072
983.97        56.90307
984.35        58.62056
984.74        60.17742
985.12        60.87471
985.51         60.4731
985.89        59.22088
986.28        57.65418
986.66        56.51568
987.04        56.07842
987.43        56.11648
987.81        56.48847
988.20        56.82255
988.58        56.96502
988.96        56.97512
989.35        56.84435
989.73        56.54396
990.12        56.07295
990.50        55.46288
990.88         54.6727
991.27         53.7259
991.65        52.73089
992.03        51.75637
992.42        51.10589
992.80        51.16021
993.18        51.96729
993.56        53.43987
993.95        55.10144
994.33        56.15673
994.71        56.22775
995.10        55.61102
995.48        54.74335
995.86        54.39819
996.24        54.77205
996.63        55.50123
997.01        56.54993
997.39        57.51755
997.77        58.14447
998.15         58.6352
998.54        58.70278
998.92        57.80301
999.30          56.062
999.68        53.69648
1000.06        51.58988
1000.45        50.98063
1000.83         52.1878
1001.21        55.00171
1001.59        58.58534
1001.97        60.83018
1002.35        60.91169
1002.73        59.48536
1003.12        57.70503
1003.50        57.03043
1003.88        57.90481
1004.26        59.71544
1004.64        62.15804
1005.02        64.52438
1005.40        66.25822
1005.78        67.65457
1006.16        68.03986
1006.54         66.3546
1006.92         62.7901
1007.30        57.89458
1007.69        53.29762
1008.07        51.13493
1008.45        52.01006
1008.83        55.49327
1009.21        60.55591
1009.59        64.40702
1009.97         65.5174
1010.35        64.52009
1010.73        62.16029
1011.11         59.6484
1011.49        57.56307
1011.86        55.64365
1012.24         54.1074
1012.62        53.26287
1013.00        53.10092
1013.38        53.61856
1013.76         54.7534
1014.14        56.07579
1014.52        57.24182
1014.90        58.23766
1015.28        58.76794
1015.66        58.55501
1016.04        57.64174
1016.41        56.05217
1016.79        54.31701
1017.17        53.53891
1017.55        53.95311
1017.93        55.16796
1018.31        56.52311
1018.69        57.02225
1019.06        56.43941
1019.44        55.12259
1019.82        53.20532
1020.20        51.24356
1020.58        49.73373
1020.95        48.47626
1021.33        48.00498
1021.71        48.87754
1022.09        51.12949
1022.46        55.01914
1022.84        59.38629
1023.22        61.10317
1023.60        59.00918
1023.97        53.88615
1024.35        48.83427
1024.73        47.47664
