SpectraSmart Spectrum 2.9.0.0
--------- Device Information -----------
Spectrum Name :  反射率_0
Saving Time :  2024/04/26 23:17:24
Spectro-Module Model Name : SE2030-DUVN
Spectro-Module Serial Number : OS361AC55029948
Wavelength Start : 200
Wavelength End : 1025
Wavelength Unit : Wavelength(nm)
Spectrum Unit : Reflectance(%)
-----------Spectrum Setting ------------
Integration Time : 20ms
Average : 10
Boxcar : 0
Background removal :  enabled
linearity correction :  enabled
SC :  disabled
Intensity correction :  disabled
DWT denoise :  enabled
savitzky-golay :  disabled
FFT :  disabled
Running average :  disabled
Kalman :  disabled
High pass :  disabled
---------------BEGIN--------------------
Wavelength(nm)             Reflectance(%)
200.29               0
200.75        35.14434
201.21        31.73226
201.67        28.97218
202.13        28.60612
202.58        30.67816
203.04        35.42554
203.50        42.02203
203.96        46.57595
204.42         46.2875
204.88        41.35901
205.34        34.55999
205.80        31.82436
206.26        34.44485
206.72        39.68785
207.18          44.737
207.64         47.4651
208.10        47.88546
208.55        47.19049
209.01        44.94534
209.47        42.16626
209.93        40.81101
210.39        40.73435
210.85        41.68897
211.31        44.10926
211.77        48.91919
212.23        59.09965
212.69        84.99197
213.14        133.8647
213.60        140.2621
214.06        112.7767
214.52        89.83917
214.98        74.39845
215.44        61.29779
215.90        47.17412
216.36        34.35708
216.81        27.56503
217.27        28.70461
217.73        38.36765
218.19        55.03533
218.65        64.24229
219.11        58.71689
219.57        47.35698
220.02        39.21063
220.48        38.98298
220.94        46.11569
221.40        60.70321
221.86         82.0705
222.32        95.97598
222.77        90.07996
223.23         74.2485
223.69        58.65984
224.15        48.79468
224.61         43.7526
225.06        40.91648
225.52        39.67764
225.98        39.42115
226.44        39.79781
226.90        40.99427
227.36        42.37271
227.81        42.73785
228.27        41.99834
228.73        40.38367
229.19        38.87944
229.65        38.68176
230.10        39.80432
230.56        41.88156
231.02        43.81999
231.48        43.91011
231.93        41.97607
232.39        39.02887
232.85        36.33649
233.31        35.53852
233.77        36.76212
234.22        39.43481
234.68         42.5387
235.14        44.59627
235.60        45.14274
236.05        44.55606
236.51         43.3854
236.97        42.80812
237.43        43.32279
237.88        44.64704
238.34          46.235
238.80        47.42857
239.26        48.09119
239.71        48.77437
240.17        49.74824
240.63        52.06624
241.08         56.3907
241.54        62.03257
242.00        69.14063
242.46        78.65432
242.91        92.42987
243.37        112.5686
243.83        139.3899
244.28        161.1177
244.74        160.1446
245.20        136.1472
245.66        107.5888
246.11        90.70571
246.57        85.85471
247.03        88.46026
247.48        92.87785
247.94        90.00391
248.40        81.00853
248.85        71.48284
249.31         64.6517
249.77        61.57848
250.22        61.52203
250.68        63.35582
251.14        67.01539
251.59         71.4175
252.05        75.01959
252.51        78.08355
252.96        78.69445
253.42        75.85572
253.88        70.60175
254.33        63.86483
254.79        59.19882
255.25        59.33923
255.70        63.67396
256.16        70.79258
256.62        77.15867
257.07        77.51089
257.53        73.15337
257.99        67.32875
258.44        62.39357
258.90        60.51419
259.35        60.67273
259.81        62.05415
260.27        63.45555
260.72        63.53239
261.18        62.45036
261.63        60.55561
262.09        58.81313
262.55        57.70737
263.00        57.11372
263.46        56.90116
263.91        56.44965
264.37        55.31615
264.83         53.5076
265.28        51.30774
265.74         49.3401
266.19        48.05528
266.65        47.55351
267.11          47.525
267.56        47.66568
268.02        47.50446
268.47        46.90369
268.93         46.0607
269.38        45.04413
269.84        44.01458
270.30        43.02825
270.75        42.01057
271.21        41.10185
271.66        40.46871
272.12        40.11722
272.57        39.97124
273.03        39.80559
273.48        39.23945
273.94        38.26062
274.39        36.97837
274.85        35.68747
275.31        34.65564
275.76        33.92397
276.22        33.43814
276.67        33.05354
277.13         32.6538
277.58        32.15274
278.04        31.61799
278.49        31.05468
278.95        30.57934
279.40         30.1564
279.86        29.80978
280.31        29.41582
280.77        28.90919
281.22        28.25958
281.68        27.57118
282.13        26.93732
282.59        26.55947
283.04        26.43323
283.50        26.51888
283.95        26.68611
284.41         26.7385
284.86        26.62345
285.32        26.41811
285.77        26.22114
286.22        26.23474
286.68        26.48233
287.13        26.85251
287.59        27.22467
288.04        27.37475
288.50        27.28151
288.95        26.99981
289.41        26.66519
289.86        26.40634
290.32         26.3024
290.77        26.30974
291.22        26.40371
291.68        26.53053
292.13         26.6785
292.59         26.9013
293.04        27.25833
293.50        27.85202
293.95        28.68493
294.40        29.71735
294.86        30.86817
295.31        32.00406
295.77        33.09803
296.22         34.1762
296.68        35.29912
297.13        36.54745
297.58        37.95508
298.04        39.49654
298.49        41.13908
298.95        42.85226
299.40        44.59746
299.85        46.37186
300.31        48.17011
300.76        49.96448
301.21        51.75274
301.67        53.55418
302.12        55.31609
302.58        57.04745
303.03        58.71752
303.48         60.3662
303.94          62.071
304.39        63.88168
304.84        65.83153
305.30        67.90331
305.75        69.99859
306.20        72.05168
306.66        74.04598
307.11        75.96137
307.57        77.81252
308.02        79.52003
308.47        81.10653
308.93         82.5884
309.38        84.02079
309.83        85.60869
310.29        87.38581
310.74        89.29089
311.19        91.14342
311.65        92.61417
312.10        93.60718
312.55        94.21219
313.00        94.67192
313.46        95.37498
313.91        96.38637
314.36        97.61746
314.82        98.84821
315.27        99.73331
315.72        100.1684
316.18        100.3059
316.63         100.309
317.08        100.4758
317.53        100.8944
317.99        101.4594
318.44        102.0941
318.89        102.6448
319.35          103.05
319.80        103.3648
320.25         103.611
320.70        103.8193
321.16        104.0092
321.61        104.2121
322.06        104.4166
322.51        104.6216
322.97        104.8189
323.42        105.0115
323.87        105.2853
324.32        105.8003
324.78        106.5274
325.23        107.4835
325.68        108.3666
326.13        108.6886
326.59        108.3502
327.04        107.5346
327.49        106.6234
327.94        106.2557
328.39        106.5912
328.85        107.4134
329.30        108.5363
329.75         109.352
330.20        109.6539
330.66        109.5979
331.11        109.4103
331.56        109.3784
332.01        109.6105
332.46        109.9697
332.92         110.365
333.37        110.8289
333.82        111.2726
334.27        111.7607
334.72        112.2086
335.17        112.4468
335.63        112.4575
336.08        112.3468
336.53        112.3216
336.98        112.7768
337.43        113.7904
337.88        115.2156
338.34        116.7734
338.79         118.108
339.24        119.0059
339.69          119.56
340.14        119.7972
340.59        119.7915
341.05        119.6492
341.50        119.3571
341.95        119.0898
342.40        119.1177
342.85        119.5034
343.30        120.1922
343.75        121.0489
344.20        121.8179
344.66        122.4086
345.11         122.875
345.56        123.2283
346.01        123.5032
346.46        123.7365
346.91        123.9183
347.36        124.0975
347.81        124.3717
348.26        124.7451
348.72        125.1686
349.17        125.6044
349.62        126.0259
350.07        126.4007
350.52        126.7573
350.97        126.9434
351.42        126.7214
351.87         126.095
352.32        125.1609
352.77        124.2656
353.22        123.9148
353.67        124.1895
354.13        124.9324
354.58        125.7887
355.03        126.1136
355.48        125.7336
355.93        124.8356
356.38        123.7784
356.83         123.106
357.28        122.9345
357.73         123.073
358.18        123.2285
358.63        122.9428
359.08        122.1068
359.53        120.8983
359.98        119.5682
360.43        118.4627
360.88        117.6658
361.33        117.0693
361.78         116.514
362.23        115.7604
362.68        114.7647
363.13         113.632
363.58        112.5099
364.03         111.607
364.48        110.9579
364.93        110.4686
365.38        110.0237
365.83        109.4506
366.28        108.7023
366.73         107.848
367.18        106.9289
367.63         106.003
368.08        105.1004
368.53        104.1985
368.98        103.3421
369.43         102.603
369.88        101.9865
370.33        101.4814
370.78        100.9987
371.23        100.3878
371.68        99.61928
372.13        98.73434
372.58         97.8446
373.03        97.13097
373.48        96.62316
373.93        96.24673
374.38        95.88843
374.83        95.37502
375.28        94.66203
375.72        93.79696
376.17        92.89796
376.62         92.0237
377.07        91.22626
377.52        90.51698
377.97        89.90944
378.42        89.44195
378.87        89.11044
379.32        88.85474
379.77        88.71516
380.22         88.7481
380.67        88.91344
381.11        89.21268
381.56        89.31265
382.01        88.77128
382.46        87.57255
382.91        85.94269
383.36        84.36251
383.81        83.48868
384.26        83.41536
384.71        83.91744
385.15        84.66332
385.60        85.06373
386.05        84.93169
386.50        84.44484
386.95        83.72544
387.40        82.97527
387.85        82.29481
388.29        81.57049
388.74        80.97044
389.19        80.52586
389.64        80.23073
390.09        80.08244
390.54        79.98338
390.98        79.73923
391.43        79.35499
391.88        78.87106
392.33        78.40324
392.78         78.0885
393.23        77.93629
393.67        77.93935
394.12        78.04076
394.57        77.79346
395.02         77.2592
395.47        76.97106
395.91        76.93181
396.36          76.672
396.81         76.2355
397.26        75.92685
397.71         75.7338
398.15         75.5545
398.60        75.47736
399.05        75.21764
399.50        74.88679
399.95        75.20677
400.39        75.93421
400.84        75.66054
401.29        74.49339
401.74        73.85748
402.18          73.836
402.63        73.52161
403.08        72.96193
403.53        72.65631
403.97        72.61751
404.42        72.69588
404.87        72.78814
405.32        72.73992
405.76        72.50275
406.21        72.17835
406.66        71.87236
407.11        71.70177
407.55        71.75335
408.00        72.06654
408.45         72.4955
408.90        72.65723
409.34         72.4339
409.79        71.90747
410.24        71.27556
410.68        70.85828
411.13        70.73445
411.58        70.77452
412.03        70.86797
412.47        70.86711
412.92        70.70205
413.37        70.45252
413.81        70.21097
414.26         70.1769
414.71        70.35233
415.15        70.69381
415.60        71.05455
416.05        71.26635
416.49        71.27435
416.94        71.12025
417.39        70.89716
417.83        70.73354
418.28        70.67773
418.73        70.69658
419.17        70.75688
419.62         70.8082
420.07         70.8219
420.51        70.78939
420.96        70.76769
421.41        70.75793
421.85        70.73336
422.30        70.82847
422.74        70.89897
423.19        70.68008
423.64        70.21548
424.08        69.93563
424.53        69.91152
424.98        69.96526
425.42        70.11729
425.87        70.52821
426.31        71.02817
426.76        71.13258
427.21        70.83508
427.65        70.44158
428.10        70.09375
428.54        69.96361
428.99        70.14028
429.44        70.26259
429.88        70.38158
430.33        71.14736
430.77        72.15091
431.22        72.39239
431.66        71.84939
432.11        71.15047
432.56        70.63244
433.00        70.46561
433.45        70.75753
433.89        71.61503
434.34        72.37943
434.78        72.59061
435.23        71.76596
435.67        69.94641
436.12        70.28234
436.57        70.55996
437.01        71.31364
437.46        71.81136
437.90        72.10429
438.35        70.46169
438.79        71.26648
439.24        71.04295
439.68        71.02428
440.13        71.11662
440.57         71.3758
441.02        71.50433
441.46        71.49194
441.91        72.23347
442.35        73.21281
442.80        72.92608
443.24        71.70068
443.69         71.4591
444.13        72.08051
444.58        73.12058
445.02        72.30996
445.47         72.4615
445.91        72.90843
446.36        73.24519
446.80         73.4171
447.24        73.56257
447.69        73.71128
448.13          73.829
448.58        73.93576
449.02        73.99692
449.47        74.00741
449.91        73.93789
450.36         73.8167
450.80        73.63998
451.25        73.48338
451.69        73.39893
452.13        73.41696
452.58        73.51358
453.02          73.638
453.47        73.71573
453.91        73.70879
454.36        73.64096
454.80        73.53501
455.24        73.32719
455.69        73.02568
456.13        72.84116
456.58        72.83422
457.02        72.10117
457.46        71.75985
457.91        71.77666
458.35        72.20521
458.79        72.12025
459.24         71.5371
459.68         70.8727
460.13        70.36916
460.57         70.1563
461.01        70.32771
461.46         70.6502
461.90        70.95805
462.34        71.65765
462.79        71.39697
463.23        71.51338
463.68        71.52771
464.12        71.23516
464.56        70.65672
465.01        69.91656
465.45        69.18296
465.89        69.03375
466.34        69.34066
466.78        69.44006
467.22        69.34137
467.67        69.02724
468.11        69.37495
468.55        69.38659
468.99        69.27138
469.44        69.06365
469.88        68.78741
470.32        68.44006
470.77        68.10345
471.21        67.92463
471.65        67.91779
472.10        68.04702
472.54        68.22287
472.98        68.27289
473.42        68.15719
473.87        68.04326
474.31        67.88196
474.75        67.45906
475.20        67.01028
475.64        66.72008
476.08        67.54987
476.52        67.58855
476.97        67.04095
477.41        67.00499
477.85        67.12924
478.29        66.35507
478.74        67.27692
479.18        67.51671
479.62        67.29407
480.06        67.27432
480.50        67.26791
480.95          67.285
481.39        67.32372
481.83         66.7642
482.27        66.74457
482.72        66.91268
483.16        66.57288
483.60        66.58034
484.04        66.63046
484.48        67.00448
484.93        67.01288
485.37        67.23914
485.81        66.31008
486.25        66.20103
486.69        68.21687
487.14        69.16795
487.58        67.72529
488.02        67.07242
488.46        65.83965
488.90         66.0288
489.34        67.33971
489.79        68.00181
490.23        66.97704
490.67        66.19458
491.11        65.68538
491.55        65.61596
491.99        65.89484
492.43        65.85288
492.88        65.48515
493.32         65.3819
493.76        65.56969
494.20        65.72191
494.64         65.8092
495.08        65.94993
495.52        66.09818
495.96        66.12044
496.41        66.02351
496.85        65.95966
497.29         65.8469
497.73        65.84113
498.17        65.17432
498.61        65.10349
499.05        65.33997
499.49        65.51595
499.93        65.33152
500.37         65.2567
500.82        65.25846
501.26        65.10459
501.70          65.115
502.14         65.2093
502.58        65.43699
503.02        65.59533
503.46        65.65906
503.90        65.73049
504.34        65.78062
504.78        65.71593
505.22        65.52838
505.66        65.27697
506.10        65.04133
506.54        64.82185
506.98        64.62157
507.42        64.77992
507.86        64.89038
508.30        64.63721
508.74        64.89177
509.18        64.86142
509.62        64.84697
510.06        64.83067
510.50        64.82354
510.94        64.80248
511.38        64.75877
511.82        64.71255
512.26        64.67216
512.70        64.63197
513.14        64.56398
513.58        64.56866
514.02        64.67771
514.46         64.6019
514.90         64.2801
515.34        65.08272
515.78        64.67116
516.22        64.89793
516.66        65.04047
517.10        65.11269
517.54        65.08837
517.98        65.00844
518.42        64.90404
518.86        64.76321
519.30        64.60661
519.74        64.44048
520.18        64.30255
520.62        64.24835
521.06        64.28795
521.50        64.41145
521.93        64.57141
522.37        64.66528
522.81        64.67458
523.25        64.61704
523.69        64.54377
524.13        64.54041
524.57        64.61865
525.01         64.7404
525.45        64.84756
525.89        64.84861
526.32        64.71927
526.76        64.51926
527.20        64.28707
527.64        64.08631
528.08        63.94329
528.52        63.83715
528.96        63.78773
529.40        63.82469
529.83        63.93809
530.27        64.12507
530.71        64.30809
531.15        64.36883
531.59        64.28461
532.03         64.0842
532.46        63.84399
532.90        63.73356
533.34        63.77636
533.78        63.88729
534.22        63.99229
534.66        64.05595
535.09        64.00677
535.53        63.73851
535.97        63.34081
536.41        63.11689
536.85        63.10898
537.28         63.1724
537.72        63.27509
538.16        63.41435
538.60        63.56194
539.04        63.71743
539.47        63.83777
539.91        63.89757
540.35        63.87941
540.79        63.79222
541.22        63.67236
541.66        63.61039
542.10        63.62242
542.54         63.6762
542.97        63.72213
543.41         63.7887
543.85        63.72463
544.29        63.65121
544.72        63.55892
545.16        63.50859
545.60        63.50026
546.04        63.59344
546.47        63.74252
546.91        63.73051
547.35        63.62093
547.79        63.70998
548.22        63.95805
548.66        64.17132
549.10        64.30924
549.53        64.12396
549.97        63.71851
550.41        63.41102
550.84        63.32075
551.28        63.36905
551.72        63.46912
552.15        63.61637
552.59        63.85516
553.03        63.30881
553.46        63.89463
553.90        63.69672
554.34        63.72526
554.77        63.61344
555.21        63.54819
555.65        63.55034
556.08        63.60333
556.52         63.6725
556.96        63.70389
557.39        63.76069
557.83        63.80134
558.27         63.5604
558.70        63.12475
559.14        62.96861
559.57        63.08157
560.01        63.10375
560.45        63.04497
560.88        63.20478
561.32        63.52594
561.75        63.67323
562.19        63.64654
562.63        63.48318
563.06        63.28285
563.50        63.37489
563.93        63.63431
564.37         63.6913
564.80        63.55617
565.24        63.34868
565.68        62.98548
566.11        63.59218
566.55        62.90534
566.98        62.78216
567.42        62.68803
567.85        62.91801
568.29        63.42186
568.72        63.86334
569.16        64.24174
569.60        64.46061
570.03        64.56518
570.47        64.68137
570.90        64.91188
571.34        64.23286
571.77        64.24701
572.21        64.95564
572.64        64.64902
573.08        65.04342
573.51        64.19392
573.95        64.29178
574.38        64.97345
574.82        65.19065
575.25        64.55842
575.69        64.55919
576.12         65.0581
576.56        63.98476
576.99         64.1574
577.42        64.37561
577.86        64.83855
578.29        65.43964
578.73         65.6963
579.16         65.4574
579.60        64.67616
580.03        64.61162
580.47        64.43682
580.90        65.36818
581.33        64.98586
581.77        65.58796
582.20        65.60883
582.64         66.1503
583.07        65.50257
583.51        64.93275
583.94        64.49397
584.37        64.37879
584.81        64.77077
585.24        64.86713
585.68        64.57721
586.11        65.06501
586.54        65.20246
586.98        64.35513
587.41        63.85116
587.85        64.14848
588.28        64.36382
588.71        64.06967
589.15        63.85218
589.58        63.98208
590.01        63.90634
590.45        63.63974
590.88        64.37223
591.31        64.24229
591.75        63.76331
592.18        63.43643
592.61         63.5043
593.05        63.86051
593.48        64.73557
593.91        64.81668
594.35        64.52789
594.78        63.63551
595.21        63.17342
595.65        63.56663
596.08        64.97711
596.51        64.70351
596.94        64.09985
597.38        63.68233
597.81        63.84275
598.24        64.46484
598.68        64.25006
599.11        63.62018
599.54        65.01766
599.97        64.65391
600.41        64.21208
600.84        63.59559
601.27        63.97915
601.70        63.99841
602.14        64.05844
602.57        63.78491
603.00        63.43928
603.43        63.24358
603.87        64.08389
604.30        64.24126
604.73        64.06328
605.16        63.37237
605.60        63.42883
606.03        63.13014
606.46        62.81813
606.89        63.16254
607.32          63.472
607.76        63.33378
608.19        63.47458
608.62         63.5225
609.05        63.31173
609.48        63.26261
609.92         64.0718
610.35        63.68387
610.78        63.26343
611.21        63.23911
611.64        63.26984
612.07        63.49826
612.50        63.37252
612.94        63.39728
613.37        63.44047
613.80        63.22343
614.23        62.88198
614.66        62.72198
615.09        63.17883
615.52        63.28505
615.96        63.09211
616.39        63.13679
616.82        63.41438
617.25         62.7382
617.68        62.80745
618.11        62.82207
618.54        63.19244
618.97        63.21146
619.40        62.89357
619.84        62.88049
620.27        62.82312
620.70        62.88941
621.13        62.92463
621.56        62.45223
621.99        61.54922
622.42        61.59255
622.85        62.13101
623.28        61.48515
623.71        61.90701
624.14        62.19537
624.57        62.34866
625.00        62.38337
625.43        62.48193
625.86        62.42435
626.29        62.37725
626.72        61.99181
627.15        62.15139
627.58        62.14376
628.01        62.15915
628.44        62.09082
628.87        61.97289
629.30           61.79
629.73        61.73068
630.16        61.95285
630.59         61.9562
631.02        62.15791
631.45        62.35233
631.88         62.4895
632.31         62.5346
632.74        62.49098
633.17        62.37172
633.60        62.20286
634.03        62.00739
634.46        61.78212
634.89        61.55593
635.32        61.38989
635.75        61.30381
636.18        61.22221
636.61         61.1653
637.04        61.19835
637.47        61.31407
637.89        61.47955
638.32        61.61756
638.75        61.66347
639.18        61.59834
639.61        61.44308
640.04        61.25671
640.47         61.1363
640.90        61.11047
641.33        61.15735
641.76        61.24433
642.18        61.32126
642.61        61.35017
643.04        61.35394
643.47        61.35201
643.90        61.37506
644.33         61.4254
644.76        61.48527
645.18        61.52776
645.61        61.49649
646.04         61.3939
646.47        61.25089
646.90        61.10497
647.33        61.00929
647.75        60.95814
648.18        60.97458
648.61        61.08815
649.04         61.1539
649.47         61.0832
649.89        61.74297
650.32        61.45493
650.75         61.4522
651.18         61.3032
651.61        61.24047
652.03        61.32939
652.46         61.4016
652.89        61.41732
653.32        61.56881
653.74        61.98405
654.17        61.24758
654.60        61.65522
655.03        61.59827
655.46        60.96938
655.88        60.96758
656.31        64.25595
656.74        67.78991
657.16        68.22816
657.59        68.35432
658.02        63.33496
658.45         62.4739
658.87        61.73149
659.30        61.89716
659.73        61.49989
660.15        62.24033
660.58        61.37707
661.01        61.21025
661.44        61.06064
661.86        60.86629
662.29        60.59267
662.72        61.05063
663.14        61.01976
663.57        61.03241
664.00        60.83092
664.42        60.90015
664.85        61.24857
665.27        61.58511
665.70        61.78252
666.13        61.84357
666.55         61.7508
666.98        61.43349
667.41        60.97904
667.83        60.93794
668.26        60.72039
668.69        60.79513
669.11        60.93716
669.54        61.07484
669.96        61.18403
670.39        61.30293
670.82        61.42046
671.24        61.45885
671.67        61.46243
672.09        61.38862
672.52        61.60769
672.94        61.63298
673.37        61.57418
673.80         61.5201
674.22        61.49899
674.65        61.46532
675.07        61.43415
675.50        61.41294
675.92        61.38419
676.35        61.30353
676.77        61.17158
677.20        61.01215
677.62        60.87474
678.05        60.81748
678.47         60.8463
678.90         61.0098
679.32        61.14033
679.75        61.25208
680.17        61.27399
680.60        61.29375
681.02        61.32144
681.45        61.20119
681.87        61.02515
682.30        61.17904
682.72         61.5861
683.15        61.65193
683.57        61.40213
684.00        61.32333
684.42         61.4627
684.85        61.57553
685.27        61.65435
685.70        61.83961
686.12        62.05061
686.54        62.11327
686.97        62.00097
687.39         61.7725
687.82        61.49778
688.24        61.31155
688.66        61.25148
689.09         61.2785
689.51         61.3628
689.94        61.42604
690.36        61.45038
690.78        61.44517
691.21        61.44086
691.63        61.47555
692.06        61.55883
692.48        61.68169
692.90         61.7855
693.33        61.78563
693.75        61.66498
694.17        61.42538
694.60         61.1797
695.02        61.10108
695.44        61.19448
695.87        61.46597
696.29        61.78825
696.71        61.63554
697.14        61.14038
697.56        61.11571
697.98        61.53577
698.41        61.70209
698.83        61.58746
699.25        61.63818
699.68        61.79976
700.10        61.83017
700.52        61.69707
700.94        61.48449
701.37         61.2862
701.79        61.25893
702.21        61.42533
702.64        61.71333
703.06        62.02863
703.48        62.20314
703.90         62.1886
704.33        62.04007
704.75        61.81415
705.17        61.59574
705.59        61.43222
706.01        61.30414
706.44        61.23924
706.86        61.31293
707.28        61.51688
707.70        61.78722
708.12        62.07294
708.55        62.37665
708.97        62.62362
709.39        62.59808
709.81        62.35886
710.23        62.24196
710.66        62.29008
711.08        62.34833
711.50        62.35505
711.92        62.29921
712.34         62.1728
712.76        61.99979
713.19        61.82275
713.61        61.74207
714.03        61.76988
714.45        61.88351
714.87         62.0542
715.29        62.23911
715.71        62.41245
716.13        62.56631
716.56         62.6769
716.98        62.79243
717.40        62.87915
717.82        62.93129
718.24        62.90806
718.66        62.74903
719.08        62.46996
719.50        62.12027
719.92        61.80259
720.34        61.66925
720.76        61.75041
721.19        61.97408
721.61        62.30402
722.03        62.62904
722.45        62.88885
722.87        63.09691
723.29        63.19803
723.71        63.11075
724.13        62.84166
724.55        62.42707
724.97        61.98254
725.39        61.70645
725.81        61.65522
726.23        61.76099
726.65        61.95491
727.07        62.25395
727.49        62.38907
727.91        62.56547
728.33        62.71623
728.75        62.84878
729.17        62.95739
729.59        63.02049
730.01        63.03969
730.43        63.02609
730.85        62.98611
731.27         62.9273
731.69        62.85107
732.10        62.75306
732.52        62.63947
732.94        62.53159
733.36        62.47507
733.78        62.41922
734.20        62.35595
734.62        62.51542
735.04        62.93529
735.46        62.50312
735.88        63.05509
736.30        63.09185
736.72        63.17496
737.13        63.25454
737.55        63.28502
737.97        63.43999
738.39        63.60879
738.81        63.26937
739.23        62.59427
739.65        62.57142
740.06        63.10767
740.48        63.31101
740.90        63.12231
741.32         63.0642
741.74         63.1739
742.16        63.24186
742.57        63.26934
742.99        63.30109
743.41        63.31305
743.83        63.25128
744.25        63.11387
744.67        62.90231
745.08        62.71025
745.50        62.66982
745.92        62.81253
746.34        63.09365
746.75        63.38639
747.17        63.47458
747.59         63.3198
748.01        62.98686
748.42         62.6139
748.84        62.44056
749.26        62.52398
749.68        62.73582
750.09        62.96598
750.51        63.16093
750.93        63.21445
751.35        62.93684
751.76        62.44852
752.18        62.16973
752.60        62.15136
753.01        62.21802
753.43         62.3034
753.85        62.37961
754.27        62.40823
754.68        62.52402
755.10        62.76012
755.52        62.55509
755.93        62.85042
756.35        62.87316
756.77         62.9698
757.18         62.9971
757.60        63.07567
758.02        63.38299
758.43        63.87373
758.85        63.17545
759.26        63.45369
759.68        62.93093
760.10        62.39425
760.51        62.85931
760.93        63.41042
761.34        63.57339
761.76        63.14894
762.18        63.19797
762.59        63.70554
763.01        63.75785
763.42        63.41885
763.84         63.2756
764.26        63.39398
764.67        63.43164
765.09        63.39795
765.50        63.38147
765.92        63.39666
766.33        63.28318
766.75          62.999
767.16         62.9979
767.58         62.8925
768.00        62.77985
768.41        62.64729
768.83        62.88485
769.24        63.34945
769.66        63.56093
770.07        63.46269
770.49        63.07903
770.90        62.63712
771.32        62.90153
771.73        63.72832
772.15        64.00774
772.56         63.6782
772.97        63.36485
773.39        63.20331
773.80        63.12807
774.22         63.1558
774.63        63.34872
775.05        63.56626
775.46        63.64541
775.88        63.51978
776.29        63.26764
776.70        62.99419
777.12        62.89405
777.53        63.02034
777.95         63.2645
778.36        63.56026
778.77        63.76322
779.19        63.84252
779.60         63.8645
780.02        63.80376
780.43         63.7047
780.84        63.61275
781.26        63.22633
781.67        62.75282
782.09        63.17831
782.50        64.23344
782.91        64.33165
783.33        63.52911
783.74        63.29156
784.15        63.66782
784.57        63.78749
784.98        63.65134
785.39         63.6628
785.81        63.83035
786.22        64.04462
786.63        64.25701
787.04         64.3929
787.46        64.44631
787.87        64.42699
788.28        64.38728
788.70        64.38652
789.11        64.41477
789.52        64.47681
789.93        64.54113
790.35        64.52873
790.76        64.45039
791.17        64.37148
791.58         64.2996
792.00        64.17567
792.41        64.02245
792.82        63.90274
793.23        63.85297
793.65        63.81711
794.06         63.8564
794.47        64.19898
794.88        64.69167
795.29         64.8941
795.71        64.73359
796.12        64.43896
796.53        64.13786
796.94        64.00211
797.35        64.10263
797.76        64.39136
798.18        64.73434
798.59        64.95541
799.00        64.97665
799.41        64.85688
799.82        64.67669
800.23        64.57082
800.64         64.5734
801.06        64.60403
801.47         64.6587
801.88        64.64668
802.29        64.54729
802.70        64.41017
803.11        64.24715
803.52        64.06589
803.93        63.89614
804.34        63.74002
804.75        63.67309
805.17        63.83649
805.58        64.27199
805.99        64.80606
806.40        65.31477
806.81        65.82253
807.22        66.14714
807.63        65.81707
808.04        65.01427
808.45        64.50804
808.86         64.4173
809.27        64.39037
809.68         64.3655
810.09         64.3843
810.50         64.4198
810.91        64.47056
811.32        64.57546
811.73        64.78807
812.14        65.10029
812.55        65.46834
812.96        65.78439
813.37         65.8625
813.78         65.6601
814.19        65.26212
814.60        64.77709
815.01        64.34258
815.42        64.00168
815.83        63.71997
816.24        63.53938
816.65        63.53254
817.05        63.71482
817.46        64.04749
817.87        64.42888
818.28        64.65367
818.69        64.67455
819.10        64.51546
819.51        64.31412
819.92        64.33308
820.33        64.62799
820.74        65.10551
821.14        65.57752
821.55        65.74094
821.96        65.53254
822.37        65.06292
822.78            64.5
823.19        64.12392
823.60        64.03407
824.00        64.17316
824.41        64.42829
824.82         64.6997
825.23        64.91984
825.64        65.11854
826.04         65.2808
826.45        65.34058
826.86        65.30824
827.27        65.20057
827.68         65.0432
828.08        64.92152
828.49        64.81662
828.90        64.71985
829.31        64.69345
829.72        64.83325
830.12        65.16005
830.53        65.59791
830.94        65.96475
831.35         65.9044
831.75        65.36725
832.16        64.45307
832.57        63.47738
832.97        62.91966
833.38        62.90582
833.79        63.28552
834.20        63.86275
834.60        64.31772
835.01        64.54968
835.42        64.68671
835.82        64.77934
836.23         64.8381
836.64        64.91317
837.04        64.94125
837.45        65.02143
837.86        65.39729
838.26        66.10898
838.67        67.04446
839.08        67.90632
839.48        68.11817
839.89        67.54719
840.29        66.41413
840.70        65.21096
841.11        64.47496
841.51        64.35442
841.92        64.67613
842.33        65.27496
842.73        65.85141
843.14        66.17947
843.54        66.39095
843.95        66.51521
844.35         66.6556
844.76        66.81432
845.17        66.92279
845.57        66.94302
845.98         66.8063
846.38        66.53388
846.79        66.17696
847.19         65.7968
847.60        65.45761
848.00        65.20518
848.41        65.00092
848.81        64.91339
849.22        64.97216
849.62        65.19991
850.03        65.56196
850.43         65.9396
850.84        66.07629
851.24        65.95879
851.65        65.59297
852.05        65.21425
852.46        65.14393
852.86        65.46389
853.27        66.05079
853.67        66.63831
854.07        66.97259
854.48        66.96931
854.88         66.7309
855.29          66.323
855.69        65.98927
856.10        65.75265
856.50        65.62305
856.90        65.51072
857.31        65.29025
857.71        64.98684
858.12         64.5957
858.52          64.259
858.92        64.08945
859.33        64.10107
859.73        64.29991
860.13        64.53063
860.54        64.55515
860.94        64.36255
861.34        64.01074
861.75        63.66071
862.15        63.62441
862.55        63.94423
862.96        64.46594
863.36        65.07364
863.76          65.493
864.17        65.60976
864.57        65.54303
864.97        65.25082
865.38        64.67506
865.78         63.8867
866.18        62.90867
866.58        62.00888
866.99        61.66187
867.39        61.99971
867.79        62.87898
868.19        63.97079
868.60        64.74313
869.00        65.07265
869.40        65.04836
869.80        64.82699
870.21        64.72478
870.61        64.90112
871.01        65.19695
871.41        65.41801
871.81        65.30543
872.22        64.81533
872.62        64.03996
873.02        63.24324
873.42        62.85106
873.82        62.97836
874.22        63.50964
874.63        64.10945
875.03        64.26362
875.43        63.84324
875.83        63.00511
876.23        62.11415
876.63        61.73216
877.03        61.98727
877.44        62.68768
877.84        63.49022
878.24        63.83574
878.64        63.53429
879.04        62.63623
879.44        61.60511
879.84        61.24929
880.24        61.68843
880.64        62.62331
881.04        63.57088
881.44        63.77151
881.84        63.05161
882.24        61.69242
882.65        60.21296
883.05        59.40504
883.45        59.47782
883.85        60.19131
884.25        61.18956
884.65        61.86514
885.05        62.02113
885.45        61.85774
885.85        61.57877
886.25        61.48568
886.65        61.66901
887.05        62.00119
887.45        62.39225
887.85        62.72211
888.25        62.92626
888.65        63.03437
889.04        63.06276
889.44        63.05614
889.84        63.01156
890.24        62.91668
890.64        62.72715
891.04        62.38282
891.44         61.9119
891.84        61.38733
892.24        60.92336
892.64         60.6722
893.04         60.6681
893.44        60.86311
893.83        61.22587
894.23        61.64059
894.63        62.07015
895.03        62.52282
895.43        62.92912
895.83        63.19402
896.23        63.28215
896.63        63.16613
897.02        62.94146
897.42        62.80678
897.82        62.79816
898.22        62.89947
898.62        62.93002
899.01        62.59352
899.41        61.88639
899.81        60.91353
900.21        59.99292
900.61        59.63616
901.00        59.94397
901.40        60.74002
901.80         61.6701
902.20        62.15552
902.59        62.05875
902.99        61.56591
903.39        60.92049
903.79         60.5235
904.18        60.49425
904.58        60.67851
904.98        61.03434
905.38        61.52366
905.77        62.08984
906.17        62.77179
906.57        63.36274
906.96        63.50232
907.36         63.1242
907.76        62.34797
908.15        61.53159
908.55        61.24058
908.95        61.60714
909.34        62.45793
909.74        63.44285
910.14        64.05246
910.53         64.0937
910.93        63.75473
911.33        63.13842
911.72         62.3884
912.12        61.67447
912.52        60.98026
912.91        60.42439
913.31        60.21312
913.70        60.36871
914.10        60.79437
914.49        61.45277
914.89        62.16801
915.29        62.86061
915.68        63.57664
916.08         64.0546
916.47        63.95412
916.87        63.27383
917.26        62.09752
917.66        60.97217
918.05        60.59056
918.45        61.07355
918.84        62.27756
919.24         63.6343
919.64        64.24693
920.03        63.87927
920.42        62.77694
920.82        61.53226
921.21        61.01012
921.61        61.40741
922.00        62.49267
922.40        63.77078
922.79         64.4966
923.19        64.40457
923.58        63.78225
923.98         63.0008
924.37        62.53465
924.77        62.52343
925.16        62.74732
925.55         63.0778
925.95        63.29587
926.34         63.3258
926.74        63.25388
927.13        63.03449
927.52        62.50848
927.92        61.75217
928.31        60.82238
928.70        59.99598
929.10        59.67533
929.49        59.91759
929.89        60.54911
930.28        61.43736
930.67        62.22504
931.07        62.73151
931.46        63.11343
931.85        63.21567
932.24        62.85707
932.64        62.11377
933.03        61.02023
933.42        60.04752
933.82        59.88248
934.21        60.64289
934.60        62.19529
934.99        63.99286
935.39        65.02126
935.78        65.00818
936.17        64.11839
936.56        62.91541
936.96         62.3074
937.35        62.51986
937.74        63.29383
938.13        64.07874
938.53        64.02785
938.92        63.00177
939.31        61.36697
939.70        59.74377
940.09        58.99546
940.49        59.28265
940.88        60.36073
941.27        61.79239
941.66        62.77711
942.05        63.03308
942.44         62.8013
942.84        62.36868
943.23         62.1863
943.62         62.3875
944.01        62.75518
944.40        63.17873
944.79        63.52307
945.18        63.69836
945.57        63.76384
945.97        63.58669
946.36        63.02906
946.75        62.09719
947.14         60.9407
947.53        59.80828
947.92         59.0388
948.31        58.71604
948.70        58.74234
949.09        59.08816
949.48        59.67611
949.87         60.4212
950.26        61.32315
950.65        62.16681
951.04         62.6106
951.43        62.57438
951.82        62.10705
952.21        61.48221
952.60        61.18166
952.99        61.32899
953.38        61.80424
953.77         62.3575
954.16        62.58192
954.55        62.37084
954.94        61.83705
955.33        61.20395
955.72        60.85504
956.11        60.90564
956.50        61.24774
956.89        61.62723
957.28        61.61964
957.66         61.1242
958.05        60.34092
958.44        59.55012
958.83        59.14899
959.22        59.20231
959.61        59.54982
960.00         59.9986
960.39        60.20455
960.78        60.04699
961.16        59.66368
961.55        59.14949
961.94         58.5558
962.33        57.95389
962.72        57.34555
963.11         56.9012
963.49        56.98906
963.88        57.60471
964.27        58.57421
964.66        59.69638
965.04        60.73151
965.43        61.53498
965.82         62.2154
966.21        62.48228
966.60        61.85326
966.98        60.33982
967.37        58.24635
967.76        56.32104
968.15         55.4959
968.53        55.90389
968.92        57.33442
969.31        59.20255
969.69        60.27186
970.08        60.04654
970.47        58.92718
970.86        57.60252
971.24        57.06118
971.63        57.53054
972.02        58.70366
972.40        60.17788
972.79        60.93692
973.17        60.69858
973.56        59.82554
973.95        58.76601
974.33        58.06991
974.72        57.87283
975.11        57.94717
975.49        58.18915
975.88        58.37122
976.26         58.4501
976.65        58.51744
977.04        58.50978
977.42        58.27132
977.81        57.76941
978.19        56.99271
978.58        56.35871
978.96        56.51041
979.35        57.53091
979.74        59.27049
980.12        61.11698
980.51        61.74606
980.89        60.96939
981.28        59.19176
981.66        57.26788
982.05        56.38916
982.43          56.838
982.82        58.25147
983.20        60.22903
983.59        61.90684
983.97        62.95489
984.35        63.55138
984.74         63.6739
985.12        63.54344
985.51        63.22339
985.89        62.68881
986.28        62.10591
986.66         61.6804
987.04         61.5264
987.43        61.56163
987.81        61.85083
988.20        62.35201
988.58        62.97794
988.96         63.5983
989.35        63.92199
989.73        63.53754
990.12        62.40157
990.50        60.72486
990.88         58.7384
991.27        56.96673
991.65        55.71345
992.03        54.88138
992.42         54.6571
992.80        55.25218
993.18        56.62914
993.56        58.75763
993.95        60.97382
994.33        62.12383
994.71        61.74124
995.10        60.23128
995.48        58.35034
995.86        57.34762
996.24        57.52564
996.63        58.41178
997.01         59.8419
997.39        61.09101
997.77        61.76889
998.15        62.21862
998.54        62.19071
998.92         61.1785
999.30        59.35323
999.68        56.88679
1000.06        54.77904
1000.45        54.48078
1000.83        56.33157
1001.21        60.06639
1001.59        64.62867
1001.97        67.37632
1002.35        67.25677
1002.73        65.08992
1003.12        62.26439
1003.50        60.52403
1003.88        60.39489
1004.26        61.18727
1004.64        62.70872
1005.02        64.50539
1005.40        66.14364
1005.78        67.92107
1006.16         68.9659
1006.54        67.86143
1006.92        64.67495
1007.30        59.97489
1007.69        55.52761
1008.07        53.72561
1008.45        55.23091
1008.83        59.55099
1009.21        65.40675
1009.59        69.44666
1009.97        69.95911
1010.35        67.82538
1010.73        64.24016
1011.11          61.014
1011.49        58.83467
1011.86        57.22015
1012.24        56.20154
1012.62        55.84678
1013.00        56.08315
1013.38        57.02634
1013.76        58.54007
1014.14        59.98717
1014.52        60.96276
1014.90        61.46547
1015.28        61.50511
1015.66        61.26816
1016.04        60.86881
1016.41        60.23049
1016.79        59.57157
1017.17        59.38169
1017.55        59.74427
1017.93        60.51553
1018.31        61.35881
1018.69        61.74725
1019.06        61.58325
1019.44        61.02268
1019.82        60.12667
1020.20         59.1977
1020.58        58.40922
1020.95        57.51242
1021.33         56.8853
1021.71        56.81905
1022.09        57.34064
1022.46        58.77538
1022.84        60.14626
1023.22        59.26503
1023.60        55.71751
1023.97        50.19978
1024.35        45.70604
1024.73         45.6909
