SpectraSmart Spectrum 2.9.0.0
--------- Device Information -----------
Spectrum Name :  反射率_0
Saving Time :  2024/04/26 23:19:20
Spectro-Module Model Name : SE2030-DUVN
Spectro-Module Serial Number : OS361AC55029948
Wavelength Start : 200
Wavelength End : 1025
Wavelength Unit : Wavelength(nm)
Spectrum Unit : Reflectance(%)
-----------Spectrum Setting ------------
Integration Time : 20ms
Average : 10
Boxcar : 0
Background removal :  enabled
linearity correction :  enabled
SC :  disabled
Intensity correction :  disabled
DWT denoise :  enabled
savitzky-golay :  disabled
FFT :  disabled
Running average :  disabled
Kalman :  disabled
High pass :  disabled
---------------BEGIN--------------------
Wavelength(nm)             Reflectance(%)
200.29               0
200.75        48.41083
201.21        47.45359
201.67        45.84575
202.13        44.14346
202.58        42.27158
203.04        40.09504
203.50        37.87761
203.96        36.69512
204.42        37.40151
204.88         40.1497
205.34        43.74939
205.80        45.65547
206.26        45.13274
206.72        42.95065
207.18        40.53139
207.64        39.07358
208.10        38.63366
208.55        39.18676
209.01        40.00927
209.47        39.69004
209.93        38.25906
210.39        37.09741
210.85        37.07307
211.31        39.06084
211.77        44.06548
212.23        55.21514
212.69        84.07606
213.14        139.3979
213.60        148.4896
214.06        118.4314
214.52        93.62998
214.98        78.52287
215.44        67.16232
215.90        55.44667
216.36        44.77698
216.81        38.32476
217.27        37.38129
217.73        42.58668
218.19        52.61677
218.65        57.31377
219.11        52.45269
219.57        44.27329
220.02        39.22702
220.48         41.0907
220.94        49.71703
221.40        65.89539
221.86        88.88087
222.32        103.1358
222.77         95.7992
223.23        77.88661
223.69        60.66194
224.15        50.19777
224.61        45.30076
225.06        42.84324
225.52        42.25245
225.98        42.99503
226.44        44.61102
226.90        47.30399
227.36        49.78331
227.81        49.72437
228.27        47.12349
228.73        42.90065
229.19        39.07873
229.65        38.00639
230.10        39.69612
230.56        43.22955
231.02        46.98566
231.48        48.35924
231.93        46.87256
232.39        43.94194
232.85        40.83101
233.31        39.13005
233.77        39.10653
234.22        40.20584
234.68        41.95991
235.14        43.84377
235.60        45.61819
236.05        47.51815
236.51        49.47599
236.97        51.18283
237.43        52.51145
237.88         53.5172
238.34        54.23837
238.80        55.19722
239.26        56.75503
239.71        59.21169
240.17        62.98883
240.63        69.16449
241.08        77.99812
241.54        88.62869
242.00        100.0235
242.46        111.1788
242.91        123.0599
243.37        135.9648
243.83        149.0544
244.28        155.2372
244.74        145.3181
245.20        121.7877
245.66         99.2425
246.11        87.58453
246.57        85.93285
247.03        91.37971
247.48        97.63411
247.94        94.24679
248.40        83.10138
248.85        70.73408
249.31        61.64511
249.77        57.88701
250.22        58.66718
250.68         62.8443
251.14        70.29705
251.59        78.36264
252.05        84.08794
252.51        88.16025
252.96        89.16518
253.42        86.96359
253.88        82.66616
254.33         76.6031
254.79        72.78451
255.25        74.45679
255.70         80.8868
256.16        90.61859
256.62        98.83504
257.07        98.42754
257.53        91.53912
257.99        82.79791
258.44        75.74517
258.90        73.43575
259.35        74.39281
259.81         77.2498
260.27        80.10516
260.72        80.73475
261.18        79.33087
261.63        76.60828
262.09        74.00366
262.55        72.34346
263.00         71.4993
263.46        71.22135
263.91          70.705
264.37        69.38486
264.83        67.24371
265.28        64.64314
265.74        62.32631
266.19        60.80954
266.65        60.21545
267.11        60.16982
267.56        60.30587
268.02        60.07714
268.47        59.30478
268.93        58.19698
269.38        56.84268
269.84        55.44823
270.30        54.08092
270.75        52.67419
271.21        51.32971
271.66        50.13257
272.12        49.10838
272.57        48.23014
273.03        47.42507
273.48        46.54186
273.94        45.60436
274.39        44.60592
274.85        43.68207
275.31         42.8618
275.76        42.12065
276.22        41.48141
276.67        40.84262
277.13        40.17915
277.58        39.42843
278.04         38.6423
278.49        37.83187
278.95        37.14777
279.40        36.55363
279.86        36.08672
280.31        35.60474
280.77        35.02594
281.22         34.3059
281.68        33.56581
282.13        32.88498
282.59        32.46913
283.04        32.30222
283.50        32.33615
283.95        32.45351
284.41        32.48799
284.86        32.38578
285.32        32.22545
285.77        32.04961
286.22        31.99088
286.68        32.07243
287.13        32.20428
287.59        32.35658
288.04        32.43723
288.50        32.44486
288.95        32.37619
289.41        32.26856
289.86        32.09364
290.32        31.91218
290.77        31.74023
291.22        31.63708
291.68        31.66683
292.13         31.8533
292.59        32.22216
293.04        32.80548
293.50        33.66648
293.95        34.78361
294.40        36.11812
294.86        37.59297
295.31        39.07684
295.77        40.53358
296.22        41.97207
296.68        43.40665
297.13        44.85225
297.58        46.33814
298.04        47.86064
298.49        49.46377
298.95        51.23996
299.40        53.17849
299.85         55.2534
300.31        57.37754
300.76        59.38567
301.21        61.25351
301.67        63.04435
302.12        64.80086
302.58        66.68957
303.03        68.69279
303.48        70.79135
303.94        72.94861
304.39        75.03453
304.84        77.05766
305.30        79.06839
305.75        81.06602
306.20        83.14526
306.66        85.32892
307.11        87.53448
307.57        89.71133
308.02        91.66563
308.47        93.39413
308.93        94.95216
309.38        96.42828
309.83        98.09069
310.29        99.98933
310.74        102.0378
311.19         104.026
311.65        105.5796
312.10        106.5894
312.55        107.1628
313.00        107.5792
313.46        108.2775
313.91        109.3339
314.36        110.6549
314.82        111.9834
315.27        112.9174
315.72        113.3386
316.18        113.4154
316.63        113.3654
317.08        113.5777
317.53        114.1526
317.99        114.9541
318.44        115.8216
318.89        116.4622
319.35        116.7855
319.80        116.8941
320.25        116.9072
320.70        117.0115
321.16        117.2653
321.61        117.6552
322.06        118.0919
322.51        118.4478
322.97        118.6694
323.42        118.7931
323.87        118.9528
324.32        119.3874
324.78        120.0887
325.23        121.0658
325.68         121.963
326.13        122.2076
326.59         121.694
327.04        120.6489
327.49        119.5489
327.94        119.1838
328.39         119.746
328.85        120.9368
329.30        122.4676
329.75        123.5985
330.20        124.0646
330.66        123.7153
331.11        123.4451
331.56        123.1674
332.01        123.2167
332.46        123.4185
332.92        123.6724
333.37        124.0046
333.82        124.3162
334.27        124.6987
334.72        125.0975
335.17        125.3776
335.63        125.5178
336.08        125.6109
336.53        125.7925
336.98        126.3511
337.43        127.3338
337.88        128.6087
338.34        129.9656
338.79        131.1899
339.24        132.0991
339.69        132.7511
340.14        133.0893
340.59        133.0497
341.05        132.7154
341.50        132.1304
341.95        131.5618
342.40        131.4141
342.85        131.7837
343.30        132.5706
343.75         133.578
344.20        134.4524
344.66        135.0647
345.11        135.4876
345.56        135.7612
346.01        135.9661
346.46        136.1528
346.91        136.3019
347.36         136.422
347.81        136.5538
348.26        136.6975
348.72        136.8242
349.17          136.98
349.62        137.2702
350.07        137.6817
350.52         138.201
350.97        138.5523
351.42        138.2992
351.87         137.407
352.32        136.0432
352.77        134.6862
353.22        134.0336
353.67        134.2109
354.13        135.0022
354.58        135.9646
355.03        136.3042
355.48        135.8035
355.93        134.6946
356.38        133.4097
356.83        132.5984
357.28        132.3951
357.73         132.567
358.18        132.7446
358.63        132.3531
359.08        131.2628
359.53        129.7001
359.98        127.9984
360.43        126.6225
360.88        125.6789
361.33        125.0139
361.78        124.4125
362.23        123.5468
362.68        122.3498
363.13        120.9644
363.58        119.5568
364.03        118.3589
364.48        117.4216
364.93        116.6417
365.38        115.9377
365.83        115.1962
366.28        114.3773
366.73        113.5337
367.18        112.6491
367.63        111.6862
368.08        110.6536
368.53        109.5582
368.98        108.4901
369.43        107.5952
369.88        106.9022
370.33        106.3767
370.78        105.9083
371.23        105.3156
371.68        104.5471
372.13        103.6376
372.58        102.7023
373.03        101.9254
373.48        101.3374
373.93        100.8753
374.38        100.3829
374.83        99.62253
375.28        98.56114
375.72        97.27849
376.17        96.02148
376.62        95.03573
377.07        94.39027
377.52        94.02312
377.97        93.79166
378.42        93.47579
378.87        93.01323
379.32        92.44168
379.77        91.91203
380.22         91.6441
380.67        91.64647
381.11        91.85851
381.56        91.95747
382.01        91.52194
382.46        90.51176
382.91        89.14842
383.36        87.79904
383.81        86.95307
384.26        86.68652
384.71        86.81636
385.15        87.15073
385.60        87.34682
386.05        87.27547
386.50        87.03123
386.95        86.60081
387.40        85.97119
387.85        85.20174
388.29        84.27303
388.74        83.43362
389.19        82.81364
389.64        82.43063
390.09        82.23112
390.54        82.15308
390.98        82.00395
391.43        81.76453
391.88         81.5764
392.33        81.45459
392.78        80.86874
393.23        80.69339
393.67        80.24624
394.12        79.89326
394.57        79.52785
395.02        79.20699
395.47        79.11835
395.91        79.18195
396.36        79.04699
396.81        78.70878
397.26        78.35484
397.71        78.02679
398.15        77.74619
398.60        77.62274
399.05        77.39981
399.50        77.12868
399.95        77.31247
400.39        77.77222
400.84        77.43562
401.29        76.42316
401.74         75.9486
402.18        76.03535
402.63        75.72861
403.08        75.09867
403.53        74.80261
403.97        74.85249
404.42        74.96543
404.87        75.04005
405.32        74.97129
405.76        74.70811
406.21        74.41243
406.66        74.13766
407.11        73.77309
407.55         73.4725
408.00        73.64384
408.45        74.09222
408.90        74.37197
409.34        74.27197
409.79        73.76843
410.24        73.06701
410.68        72.65366
411.13        72.60617
411.58        72.65443
412.03        72.69793
412.47        72.69132
412.92          72.571
413.37        72.38381
413.81        72.18573
414.26        72.12775
414.71        72.20733
415.15        72.40507
415.60        72.62363
416.05        72.78255
416.49        72.85219
416.94        72.84336
417.39         72.8037
417.83        72.79146
418.28        72.82838
418.73        72.89472
419.17        72.96203
419.62        72.98921
420.07        72.95718
420.51         72.8602
420.96        72.76408
421.41        72.67992
421.85        72.59116
422.30        72.64672
422.74        72.71314
423.19        72.52402
423.64        72.12164
424.08        71.96017
424.53        72.07907
424.98        72.18211
425.42        72.25956
425.87        72.62115
426.31        73.10347
426.76         72.9405
427.21        72.27521
427.65        72.07245
428.10        72.31546
428.54        72.39716
428.99        72.37455
429.44         72.1688
429.88        71.98242
430.33        72.82459
430.77        74.24742
431.22        74.35761
431.66        74.10183
432.11        73.15607
432.56        72.24763
433.00        72.05464
433.45        72.74715
433.89        73.60768
434.34        73.86799
434.78        74.62022
435.23        73.94958
435.67        71.44279
436.12        72.34167
436.57        72.38497
437.01        72.97816
437.46        73.20808
437.90        73.08372
438.35        72.60226
438.79        72.78694
439.24        72.80134
439.68        72.91136
440.13        73.21172
440.57        73.65314
441.02        73.78372
441.46        73.63294
441.91        74.03417
442.35        74.69269
442.80        74.58924
443.24        73.87725
443.69        73.81994
444.13        74.35983
444.58        74.62354
445.02        74.60533
445.47        74.34783
445.91        74.74384
446.36        74.85372
446.80         74.9171
447.24        74.97202
447.69        75.02361
448.13         75.0403
448.58        75.03111
449.02        74.98634
449.47        74.92896
449.91        74.86387
450.36        74.81914
450.80         74.7692
451.25        74.74585
451.69        74.73268
452.13        74.74497
452.58        74.78354
453.02        74.81896
453.47          74.812
453.91        74.74086
454.36        74.62055
454.80        74.48966
455.24        74.30338
455.69         74.0657
456.13        74.00959
456.58        74.14458
457.02        73.48505
457.46        72.97975
457.91        73.11842
458.35        73.82023
458.79        73.79344
459.24        73.05657
459.68        72.19567
460.13        71.50616
460.57        71.28637
461.01        71.69339
461.46        71.88268
461.90        72.35058
462.34        73.48811
462.79        73.19225
463.23          73.034
463.68        72.97527
464.12        72.63441
464.56         72.1781
465.01        71.45142
465.45        70.68396
465.89        70.46191
466.34        70.65618
466.78        71.03934
467.22        71.58391
467.67        70.46526
468.11        70.83957
468.55         70.6142
468.99        70.69341
469.44        70.57146
469.88        70.27848
470.32        70.08972
470.77        69.99232
471.21        69.88767
471.65        69.76022
472.10        69.65898
472.54        69.58817
472.98        69.51844
473.42        69.43384
473.87        69.47517
474.31        69.54848
474.75        69.27147
475.20        68.80703
475.64        68.85269
476.08         69.3409
476.52        69.41305
476.97        68.96886
477.41        68.76962
477.85        69.05524
478.29        68.28449
478.74        68.58192
479.18        69.60546
479.62         69.0045
480.06        69.07861
480.50        68.85851
480.95        69.11817
481.39        69.24062
481.83        68.29202
482.27        68.40512
482.72        68.99949
483.16        68.60378
483.60        68.39001
484.04        68.65446
484.48        68.85441
484.93        68.95891
485.37        68.78036
485.81        68.08383
486.25        67.78351
486.69        69.34509
487.14        70.88123
487.58        69.05623
488.02        68.72927
488.46        67.70421
488.90        67.24702
489.34        68.02608
489.79        69.26266
490.23        68.58598
490.67        68.20844
491.11        67.61588
491.55        67.50907
491.99        67.84431
492.43        67.67979
492.88        66.98768
493.32        67.37125
493.76        67.07317
494.20         67.2704
494.64        67.39917
495.08        67.59953
495.52        67.79397
495.96        67.81389
496.41        67.67836
496.85        67.60394
497.29        67.49265
497.73         67.3755
498.17        66.51884
498.61        66.41702
499.05        66.78996
499.49        67.16782
499.93        67.19652
500.37        67.24735
500.82        67.25739
501.26        67.24931
501.70        67.24288
502.14        67.23115
502.58        67.23882
503.02        67.27896
503.46        67.35559
503.90        67.49855
504.34        67.63182
504.78        67.60019
505.22        67.38455
505.66        67.04318
506.10        66.69164
506.54        66.50806
506.98        66.53133
507.42        66.70209
507.86        66.92589
508.30        67.04566
508.74        67.01586
509.18        66.89164
509.62        66.71635
510.06        66.55997
510.50        66.45219
510.94        66.36427
511.38        66.31673
511.82        66.34608
512.26        66.44941
512.70        66.62162
513.14        66.79734
513.58        66.86622
514.02        66.80804
514.46        66.64649
514.90        66.44615
515.34        66.37612
515.78        66.46214
516.22         66.5686
516.66        66.60463
517.10        66.93037
517.54        66.72231
517.98         66.6595
518.42        66.53153
518.86        66.39644
519.30        66.27193
519.74        66.15446
520.18        66.07934
520.62        66.08105
521.06        66.16466
521.50        66.32371
521.93        66.51001
522.37        66.61894
522.81        66.63361
523.25        66.57391
523.69        66.49371
524.13        66.48329
524.57         66.5575
525.01        66.67819
525.45        66.79343
525.89        66.82028
526.32        66.73293
526.76         66.5864
527.20        66.40544
527.64        66.23265
528.08        66.09033
528.52        65.96487
528.96        65.88537
529.40        65.89729
529.83        65.99507
530.27        66.16912
530.71        66.34371
531.15        66.40306
531.59        66.32353
532.03         66.1368
532.46        65.90363
532.90        65.76938
533.34        65.75617
533.78         65.7859
534.22        65.81516
534.66        65.85838
535.09        65.84932
535.53        65.66042
535.97        65.34691
536.41        65.16278
536.85        65.13972
537.28        65.15101
537.72        65.18996
538.16        65.29668
538.60        65.45509
539.04        65.64635
539.47         65.8206
539.91        65.94456
540.35        65.98887
540.79        65.96305
541.22        65.88361
541.66        65.79294
542.10        65.69938
542.54         65.6295
542.97        65.56736
543.41        65.44619
543.85        65.29623
544.29        65.29154
544.72         65.3931
545.16        65.44019
545.60        65.41524
546.04        65.41834
546.47        65.46944
546.91        65.58264
547.35        65.75762
547.79        65.89262
548.22        65.96728
548.66        66.14959
549.10        66.39769
549.53        66.21619
549.97        65.71665
550.41        65.36201
550.84         65.2823
551.28        65.35035
551.72        65.45168
552.15        65.57793
552.59        65.77466
553.03        65.11028
553.46        65.59035
553.90        65.50073
554.34        65.40675
554.77        65.50539
555.21        65.57601
555.65        65.51907
556.08        65.71111
556.52        65.80264
556.96        65.89185
557.39        65.86256
557.83        65.69781
558.27        65.67043
558.70        65.18988
559.14         65.0775
559.57        65.11399
560.01        65.11173
560.45         65.0787
560.88        65.13593
561.32        65.30226
561.75        65.57848
562.19        65.88018
562.63        65.78676
563.06        65.40387
563.50        65.39703
563.93        65.67407
564.37        65.74886
564.80         65.6274
565.24        65.43631
565.68        65.08708
566.11        65.75224
566.55        65.08052
566.98        64.99301
567.42         64.9063
567.85        65.04366
568.29         65.3857
568.72        65.71959
569.16        66.05862
569.60        66.26611
570.03        66.22076
570.47        66.34837
570.90        66.68349
571.34        65.81052
571.77        66.19493
572.21        66.86337
572.64        66.29788
573.08        66.88589
573.51        66.13146
573.95        66.07089
574.38        66.35836
574.82        66.59617
575.25        66.13786
575.69         66.6469
576.12        66.67833
576.56        65.55211
576.99        65.74394
577.42        65.94028
577.86         66.3775
578.29        66.88735
578.73        67.18877
579.16        66.98489
579.60        66.30013
580.03        66.26343
580.47        65.96291
580.90        67.15273
581.33        66.77852
581.77        67.16756
582.20        66.60294
582.64         67.4812
583.07        66.94545
583.51        66.61052
583.94        65.99932
584.37        66.08278
584.81         66.5754
585.24        66.81363
585.68        66.60655
586.11        66.79195
586.54        66.86118
586.98        66.19312
587.41        65.31637
587.85        66.01299
588.28        65.89544
588.71        66.09023
589.15        65.49354
589.58        65.89487
590.01           65.53
590.45        65.47793
590.88         66.4453
591.31        66.29889
591.75        65.57213
592.18        65.14779
592.61        65.19831
593.05        65.79082
593.48        66.22295
593.91        66.11411
594.35        66.21738
594.78        65.64376
595.21        64.92348
595.65        65.18229
596.08        66.40744
596.51        66.57802
596.94        65.84663
597.38        65.48832
597.81        65.57753
598.24        66.36031
598.68        65.72015
599.11        65.53468
599.54        66.56464
599.97        65.99902
600.41        65.84954
600.84        65.26253
601.27        65.91782
601.70        65.41524
602.14        65.96656
602.57        65.53389
603.00        65.36235
603.43        64.89156
603.87        65.63718
604.30        65.85609
604.73        66.01112
605.16        64.97841
605.60        65.19843
606.03        64.65865
606.46         64.8124
606.89        64.82069
607.32        65.51696
607.76        64.78602
608.19        65.50823
608.62        65.31084
609.05        65.06837
609.48        65.30521
609.92        65.96634
610.35        65.61901
610.78        65.05938
611.21        65.09828
611.64        64.96146
612.07        65.17216
612.50        65.07127
612.94        65.10369
613.37         65.1228
613.80        64.99014
614.23        64.82032
614.66        64.45879
615.09        64.81857
615.52        64.86732
615.96        64.81903
616.39        64.84415
616.82        64.96607
617.25        64.67935
617.68        64.66145
618.11        64.73605
618.54        65.02345
618.97        65.11714
619.40        65.01612
619.84        64.82932
620.27        64.81578
620.70        64.71222
621.13        64.61224
621.56        64.15614
621.99        63.51799
622.42        63.69332
622.85        63.87766
623.28        63.56052
623.71        63.50729
624.14        64.09476
624.57        64.43489
625.00        63.88083
625.43         64.2917
625.86        64.14187
626.29        64.19701
626.72        63.52098
627.15        64.04321
627.58        64.05102
628.01        63.94608
628.44         64.2585
628.87        64.15852
629.30        63.61737
629.73        63.52413
630.16        63.69139
630.59        63.58717
631.02        63.84202
631.45        64.13406
631.88        64.34164
632.31        64.40359
632.74        64.37417
633.17        64.28201
633.60        64.15457
634.03        64.01886
634.46        63.86335
634.89        63.70621
635.32        63.59553
635.75        63.54539
636.18        63.48049
636.61        63.42335
637.04        63.44426
637.47        63.53914
637.89        63.67579
638.32        63.77786
638.75        63.78478
639.18        63.68075
639.61        63.48778
640.04        63.27177
640.47        63.13852
640.90        63.11683
641.33        63.18238
641.76        63.28894
642.18        63.36402
642.61        63.36407
643.04        63.31804
643.47        63.26205
643.90        63.25432
644.33        63.30384
644.76         63.3854
645.18        63.45756
645.61         63.4382
646.04        63.32534
646.47        63.16138
646.90        62.99505
647.33        62.89791
647.75        62.86604
648.18        62.90841
648.61        63.05519
649.04        63.15495
649.47        63.10072
649.89        63.80964
650.32        63.53684
650.75        63.44104
651.18        63.14004
651.61        63.14172
652.03        63.45101
652.46         63.5785
652.89        63.44012
653.32        63.34282
653.74        63.49566
654.17        62.69416
654.60        63.29404
655.03        63.43566
655.46         62.8032
655.88        62.93262
656.31        65.37724
656.74        67.56335
657.16        68.89472
657.59        69.72295
658.02        65.54909
658.45        64.73412
658.87         63.2625
659.30        63.32084
659.73         63.1862
660.15         64.0941
660.58        63.30579
661.01        63.26825
661.44        63.30648
661.86        63.09212
662.29        62.64888
662.72        63.04902
663.14        63.05389
663.57        63.10359
664.00        62.90466
664.42        62.95593
664.85        63.26159
665.27        63.54139
665.70        63.68069
666.13        63.69459
666.55        63.57323
666.98        63.24329
667.41        62.79138
667.83        62.77645
668.26        62.58588
668.69        62.70319
669.11        62.88879
669.54        63.05484
669.96        63.16805
670.39        63.27993
670.82        63.39044
671.24        63.39846
671.67        63.33661
672.09        63.34967
672.52          63.443
672.94        63.45934
673.37        63.39879
673.80        63.33582
674.22        63.29464
674.65        63.24727
675.07        63.21424
675.50        63.18831
675.92        63.16336
676.35         63.1185
676.77        63.05158
677.20        62.97145
677.62        62.90626
678.05        62.88024
678.47        62.89555
678.90        63.02356
679.32        63.09248
679.75         63.1527
680.17        63.14076
680.60        63.08493
681.02         63.0374
681.45        63.02145
681.87         63.0522
682.30        63.31796
682.72        63.47768
683.15        63.48346
683.57        63.30176
684.00        63.25954
684.42        63.39273
684.85        63.51015
685.27        63.60668
685.70        63.81638
686.12        64.05018
686.54        64.13118
686.97        64.04358
687.39        63.79305
687.82        63.43715
688.24        63.34557
688.66        63.35623
689.09        63.14677
689.51        63.41643
689.94          63.449
690.36        63.46114
690.78        63.44494
691.21        63.43555
691.63        63.45594
692.06        63.50851
692.48        63.59663
692.90        63.66616
693.33        63.64154
693.75        63.51019
694.17        63.27078
694.60        63.03502
695.02        62.98192
695.44        63.11537
695.87        63.41585
696.29        63.75271
696.71        63.64872
697.14        63.20993
697.56        63.13083
697.98        63.42465
698.41        63.55118
698.83        63.49047
699.25        63.61803
699.68        63.85105
700.10         63.9017
700.52        63.71695
700.94        63.51691
701.37        63.19573
701.79        63.11302
702.21        63.23779
702.64        63.49702
703.06        63.79868
703.48        63.97802
703.90          63.987
704.33        63.88903
704.75        63.72631
705.17        63.53736
705.59        63.35269
706.01        63.23335
706.44        63.09249
706.86        63.14021
707.28         63.3267
707.70        63.66587
708.12        64.04611
708.55        64.18838
708.97        64.09995
709.39        64.02252
709.81        63.99437
710.23         63.9333
710.66        63.86633
711.08        63.78827
711.50        63.85542
711.92        63.79953
712.34        63.67342
712.76        63.52155
713.19        63.38111
713.61        63.34058
714.03        63.40421
714.45        63.54446
714.87        63.73471
715.29        63.94167
715.71        64.13896
716.13        64.31397
716.56        64.42931
716.98         64.5136
717.40        64.53208
717.82        64.49255
718.24        64.37771
718.66        64.16173
719.08        63.87108
719.50         63.5463
719.92         63.2807
720.34        63.20785
720.76        63.34976
721.19        63.64132
721.61        64.03195
722.03        64.38515
722.45        64.63573
722.87        64.79759
723.29        64.84632
723.71        64.75475
724.13        64.53891
724.55        64.21911
724.97        63.86546
725.39        63.60435
725.81        63.47921
726.23        63.44738
726.65        63.48846
727.07        63.69909
727.49        63.82787
727.91        64.06532
728.33        64.30879
728.75        64.50697
729.17        64.63515
729.59        64.68665
730.01        64.68868
730.43        64.69525
730.85        64.71587
731.27        64.73109
731.69        64.71153
732.10        64.60822
732.52        64.42056
732.94        64.19778
733.36        63.99777
733.78        63.78978
734.20         63.5849
734.62        63.61028
735.04        63.95399
735.46        63.56395
735.88        64.31926
736.30        64.67353
736.72         65.0905
737.13        65.38844
737.55        65.48383
737.97        65.41042
738.39        65.19441
738.81        64.96097
739.23        64.74809
739.65         64.5235
740.06        64.32613
740.48        64.29478
740.90        64.41241
741.32        64.58282
741.74        64.87141
742.16        65.06053
742.57        65.14724
742.99        65.13979
743.41        65.05301
743.83        64.89693
744.25        64.69167
744.67         64.4324
745.08        64.20867
745.50        64.14157
745.92        64.26016
746.34         64.5274
746.75        64.82793
747.17        64.95355
747.59        64.86538
748.01         64.6301
748.42        64.34743
748.84        64.19275
749.26        64.21349
749.68        64.30885
750.09        64.44064
750.51        64.63277
750.93        64.81266
751.35        64.83594
751.76        64.68954
752.18        64.50952
752.60        64.30254
753.01        64.00394
753.43        63.67632
753.85        63.47672
754.27        63.44737
754.68        63.66793
755.10         63.8814
755.52        64.09325
755.93        64.19519
756.35        64.19108
756.77         64.1925
757.18        64.32748
757.60        64.62267
758.02        65.19434
758.43        65.76407
758.85        65.59872
759.26        64.95493
759.68        64.37271
760.10        64.11527
760.51        64.56841
760.93        65.07539
761.34        65.42629
761.76        65.39724
762.18        65.27248
762.59        65.17086
763.01        65.17595
763.42        65.35175
763.84        65.36737
764.26        65.23732
764.67        65.24665
765.09        65.36743
765.50        65.17992
765.92        64.78847
766.33          64.576
766.75        64.50456
767.16        64.42771
767.58        64.31187
768.00        64.16743
768.41        64.10477
768.83        64.45705
769.24        65.04583
769.66        65.28653
770.07        65.13025
770.49         64.7266
770.90        64.31261
771.32        64.59924
771.73        65.40517
772.15        65.68066
772.56        65.36504
772.97        65.01778
773.39        64.74592
773.80        64.81511
774.22        64.63427
774.63         64.7683
775.05        64.92533
775.46        65.01008
775.88        64.95737
776.29        64.82668
776.70        64.69415
777.12        64.68742
777.53         64.8449
777.95        65.08644
778.36        65.33951
778.77        65.44966
779.19        65.39661
779.60        65.24782
780.02        65.05721
780.43        64.96857
780.84        65.03355
781.26        64.99101
781.67        64.91762
782.09        65.38547
782.50        66.16451
782.91        66.15954
783.33        65.44685
783.74        65.15492
784.15        65.34564
784.57        65.36881
784.98         65.2488
785.39        65.31038
785.81        65.55582
786.22        65.90108
786.63        66.24355
787.04          66.416
787.46        66.39208
787.87        66.20149
788.28        65.96316
788.70        65.82298
789.11        65.79564
789.52         65.9222
789.93        66.10947
790.35        66.05573
790.76        65.80132
791.17        65.70315
791.58        65.79747
792.00        65.79999
792.41        65.71938
792.82        65.83981
793.23        66.09703
793.65        65.98325
794.06        65.63638
794.47        65.82872
794.88        66.42603
795.29        66.63214
795.71        66.37865
796.12        66.11644
796.53        65.96165
796.94         65.9291
797.35        66.06137
797.76         66.3611
798.18        66.67481
798.59        66.79603
799.00        66.65386
799.41        66.31191
799.82        65.92589
800.23        65.75753
800.64        65.86883
801.06        66.14801
801.47        66.50008
801.88        66.67754
802.29        66.60443
802.70        66.35143
803.11        66.01844
803.52        65.76756
803.93        65.67643
804.34        65.71124
804.75        65.82256
805.17        66.01205
805.58        66.30304
805.99        66.38447
806.40        66.33331
806.81         66.9863
807.22        68.00788
807.63        67.73619
808.04        66.38834
808.45         65.7619
808.86         66.0042
809.27        66.15051
809.68         66.0696
810.09        66.00391
810.50         65.9265
810.91        65.78223
811.32        65.68038
811.73        65.78973
812.14        66.13085
812.55        66.64778
812.96        67.18267
813.37        67.43255
813.78        67.31136
814.19        66.93606
814.60        66.44653
815.01        66.02992
815.42        65.74225
815.83        65.52329
816.24        65.40404
816.65        65.44081
817.05        65.63798
817.46        65.96862
817.87        66.31939
818.28        66.45896
818.69        66.34441
819.10        66.01347
819.51        65.64985
819.92          65.599
820.33        65.93846
820.74        66.54526
821.14        67.19089
821.55        67.50597
821.96        67.40028
822.37        66.99974
822.78        66.45929
823.19        66.04086
823.60        65.84854
824.00        65.82939
824.41        65.91779
824.82        66.10217
825.23        66.34034
825.64        66.64467
826.04        66.95049
826.45        67.10532
826.86        67.08827
827.27        66.92788
827.68        66.68156
828.08        66.49043
828.49        66.35412
828.90        66.25953
829.31        66.22054
829.72        66.25494
830.12        66.37608
830.53        66.53236
830.94          66.657
831.35        66.58443
831.75        66.30255
832.16        65.84794
832.57        65.36613
832.97        65.06721
833.38        65.01295
833.79        65.12974
834.20        65.36947
834.60        65.65047
835.01        65.93306
835.42         66.2705
835.82        66.60742
836.23        66.77232
836.64        66.75841
837.04        66.56558
837.45        66.37083
837.86         66.5337
838.26        67.13465
838.67        68.02967
839.08        68.88432
839.48          69.062
839.89        68.41527
840.29        67.19369
840.70        65.93289
841.11        65.22293
841.51        65.22235
841.92        65.74368
842.33        66.57185
842.73        67.31653
843.14        67.71826
843.54        67.92539
843.95        68.03555
844.35        68.26767
844.76        68.64526
845.17        69.06035
845.57        69.38037
845.98        69.38415
846.38        69.05554
846.79        68.48939
847.19        67.84497
847.60        67.34447
848.00        67.07318
848.41        66.94601
848.81         66.9509
849.22         66.9744
849.62        67.01706
850.03        67.12119
850.43        67.23808
850.84        67.21677
851.24        67.07743
851.65        66.76206
852.05        66.53937
852.46        66.78004
852.86        67.51975
853.27        68.59744
853.67        69.54594
854.07        69.83819
854.48        69.37061
854.88        68.33148
855.29        67.03686
855.69        66.20345
856.10         66.0078
856.50        66.33945
856.90        66.88833
857.31        67.13596
857.71        66.97469
858.12         66.5099
858.52        65.98008
858.92        65.66116
859.33          65.631
859.73        65.82271
860.13        66.07008
860.54        66.14056
860.94        66.00836
861.34        65.73834
861.75        65.45959
862.15        65.41422
862.55        65.63373
862.96        65.99628
863.36        66.40199
863.76        66.60862
864.17        66.53233
864.57        66.28683
864.97        65.89977
865.38        65.41953
865.78        64.91862
866.18        64.38084
866.58        63.93487
866.99        63.80519
867.39        64.05487
867.79        64.61406
868.19        65.28621
868.60        65.74021
869.00         65.9166
869.40        65.85818
869.80        65.68734
870.21        65.65311
870.61        65.87785
871.01        66.21571
871.41        66.48545
871.81        66.43913
872.22        66.03408
872.62        65.36315
873.02        64.62604
873.42        64.15177
873.82        64.04542
874.22        64.21496
874.63        64.48429
875.03        64.58846
875.43        64.43839
875.83        64.12032
876.23        63.76586
876.63        63.57381
877.03         63.5982
877.44        63.74733
877.84        63.93103
878.24         64.0275
878.64        63.95381
879.04         63.6109
879.44        63.19621
879.84        63.12167
880.24        63.41835
880.64        63.91551
881.04        64.33183
881.44         64.2393
881.84        63.56208
882.24        62.47889
882.65         61.3403
883.05        60.67654
883.45        60.63798
883.85        61.08226
884.25        61.80025
884.65        62.42225
885.05         62.8004
885.45        63.01799
885.85        63.15523
886.25        63.34153
886.65        63.61095
887.05        63.89787
887.45        64.11229
887.85        64.13548
888.25        63.94133
888.65        63.57487
889.04         63.1699
889.44        62.94706
889.84        62.94373
890.24        63.11986
890.64        63.30799
891.04        63.23221
891.44        62.84777
891.84        62.25558
892.24          61.688
892.64        61.48349
893.04        61.71146
893.44        62.27931
893.83         62.9726
894.23        63.38296
894.63        63.42126
895.03        63.17955
895.43        62.89464
895.83        62.96611
896.23        63.46349
896.63        64.21727
897.02        64.93095
897.42        65.16647
897.82        64.82697
898.22        64.11351
898.62        63.24298
899.01        62.52045
899.41        62.07186
899.81         61.7925
900.21        61.70375
900.61        61.84154
901.00         62.1671
901.40         62.6651
901.80        63.15932
902.20        63.34782
902.59        63.18332
902.99        62.74876
903.39         62.2198
903.79        61.90163
904.18        61.87482
904.58        62.03545
904.98        62.34928
905.38        62.77114
905.77        63.25541
906.17        63.84362
906.57        64.35037
906.96        64.45995
907.36        64.11819
907.76        63.42926
908.15        62.75126
908.55          62.647
908.95        63.23526
909.34        64.33685
909.74        65.54529
910.14        66.26156
910.53        66.27265
910.93        65.78802
911.33        64.97929
911.72        64.10583
912.12        63.36134
912.52        62.68989
912.91        62.16533
913.31        61.91644
913.70        61.95728
914.10        62.24957
914.49        62.75789
914.89        63.30896
915.29        63.83546
915.68        64.34466
916.08        64.70215
916.47        64.77957
916.87        64.57124
917.26        64.08141
917.66        63.54126
918.05        63.17959
918.45         63.0706
918.84        63.23001
919.24        63.46793
919.64        63.57007
920.03        63.49438
920.42        63.26059
920.82        63.12685
921.21        63.44528
921.61        64.23973
922.00        65.41135
922.40         66.5293
922.79        66.97997
923.19          66.579
923.58         65.5768
923.98        64.39225
924.37        63.57336
924.77        63.28605
925.16        63.33506
925.55        63.60348
925.95         63.8634
926.34        64.02133
926.74        64.13651
927.13        64.13424
927.52        63.81522
927.92        63.22857
928.31         62.4315
928.70        61.65342
929.10        61.23133
929.49        61.23252
929.89        61.51757
930.28        62.07785
930.67        62.76699
931.07        63.46538
931.46        64.27477
931.85         64.9225
932.24        65.02267
932.64        64.56989
933.03        63.62717
933.42        62.70748
933.82        62.57623
934.21        63.36903
934.60        64.91547
934.99        66.62749
935.39        67.43179
935.78        67.06377
936.17        65.74986
936.56        64.12508
936.96        63.18553
937.35        63.19669
937.74        63.88701
938.13        64.71501
938.53        64.84044
938.92        64.08807
939.31        62.78128
939.70         61.4671
940.09        60.91201
940.49        61.24522
940.88        62.23891
941.27        63.45585
941.66        64.11538
942.05        63.97652
942.44        63.30721
942.84        62.47498
943.23        62.04187
943.62        62.17175
944.01        62.63542
944.40        63.27643
944.79        63.86514
945.18        64.27862
945.57        64.59646
945.97        64.67572
946.36         64.3708
946.75        63.66521
947.14        62.65969
947.53        61.63514
947.92        60.99747
948.31        60.83888
948.70        61.06622
949.09        61.53181
949.48         61.9548
949.87         62.2238
950.26        62.40014
950.65         62.5196
951.04        62.65544
951.43        62.81884
951.82        62.94264
952.21        62.99885
952.60        62.96415
952.99        62.85495
953.38        62.73647
953.77        62.61178
954.16        62.47608
954.55        62.32849
954.94        62.11724
955.33        61.97733
955.72        62.14144
956.11        62.62343
956.50        63.37249
956.89        63.96463
957.28        63.69429
957.66        62.46077
958.05        60.57753
958.44        58.69467
958.83        57.73471
959.22         57.8701
959.61        58.83514
960.00         60.1495
960.39        60.90081
960.78        60.78437
961.16        60.09255
961.55        59.22064
961.94        58.67439
962.33        58.60964
962.72        58.86235
963.11        59.32963
963.49        59.85909
963.88        60.27666
964.27        60.63034
964.66         60.9683
965.04        61.39044
965.43        61.86213
965.82        62.37257
966.21        62.69584
966.60        62.45231
966.98        61.58367
967.37        60.32181
967.76         59.1074
968.15        58.47437
968.53        58.51374
968.92         59.0957
969.31        59.89166
969.69        60.24597
970.08        59.88229
970.47        59.03152
970.86        58.13275
971.24        57.79821
971.63        58.15447
972.02        59.03159
972.40        60.08654
972.79        60.43065
973.17        59.88644
973.56        58.77259
973.95        57.61102
974.33        57.06535
974.72        57.27037
975.11        57.98516
975.49        58.95582
975.88        59.63416
976.26        59.84245
976.65        59.71308
977.04        59.35161
977.42        58.88699
977.81        58.37403
978.19        57.75811
978.58        57.28861
978.96        57.33645
979.35        57.93138
979.74        58.99618
980.12        60.23858
980.51        60.87292
980.89        60.81974
981.28        60.30961
981.66        59.68013
982.05        59.40507
982.43        59.62523
982.82        60.11359
983.20        61.00616
983.59        62.43821
983.97        64.37794
984.35        66.75594
984.74        68.74988
985.12        69.22836
985.51        67.92262
985.89        65.22106
986.28        62.26208
986.66        60.69105
987.04         60.9554
987.43        62.61985
987.81        64.88411
988.20        66.04279
988.58        65.53793
988.96        63.84353
989.35          61.733
989.73        60.29077
990.12        59.77473
990.50        59.87845
990.88        60.12982
991.27        59.77412
991.65        58.67312
992.03        57.20215
992.42        55.95979
992.80        55.70008
993.18        56.57246
993.56        58.31322
993.95        60.35629
994.33        61.78709
994.71        62.10375
995.10         61.6253
995.48        60.71525
995.86        60.02226
996.24        59.72623
996.63        59.48616
997.01        59.37453
997.39        59.26589
997.77        59.11796
998.15        59.16234
998.54        59.18491
998.92        58.67821
999.30        57.70719
999.68        56.42794
1000.06        55.52902
1000.45        56.00311
1000.83        58.10457
1001.21        61.62549
1001.59          65.757
1001.97        68.44546
1002.35        68.81404
1002.73        67.44426
1003.12        65.39651
1003.50        63.98327
1003.88        63.64079
1004.26        63.82862
1004.64        64.46826
1005.02         65.3624
1005.40        66.27627
1005.78        67.48749
1006.16        68.20276
1006.54        67.10294
1006.92        64.22112
1007.30        60.07053
1007.69        56.27086
1008.07        55.00248
1008.45         56.8621
1008.83        61.38017
1009.21        67.23048
1009.59        71.01561
1009.97        71.05865
1010.35        68.30114
1010.73        64.11621
1011.11        60.53892
1011.49        58.29812
1011.86        56.86297
1012.24        56.17123
1012.62        56.16401
1013.00        56.74475
1013.38        58.07025
1013.76         60.0077
1014.14        61.88701
1014.52        63.21339
1014.90        63.87413
1015.28         63.8719
1015.66         63.4408
1016.04        62.69735
1016.41         61.5832
1016.79        60.22842
1017.17        58.99443
1017.55         58.0807
1017.93         57.5473
1018.31        57.31427
1018.69        57.15406
1019.06        57.02239
1019.44        57.00241
1019.82        57.19552
1020.20        57.78087
1020.58        58.63575
1020.95        59.35315
1021.33        59.93705
1021.71        60.39953
1022.09        60.78141
1022.46        61.33181
1022.84        61.42349
1023.22        59.86003
1023.60        56.62867
1023.97        52.24562
1024.35        48.80032
1024.73        48.47818
