SpectraSmart Spectrum 2.9.0.0
--------- Device Information -----------
Spectrum Name :  反射率_0
Saving Time :  2024/04/26 23:16:40
Spectro-Module Model Name : SE2030-DUVN
Spectro-Module Serial Number : OS361AC55029948
Wavelength Start : 200
Wavelength End : 1025
Wavelength Unit : Wavelength(nm)
Spectrum Unit : Reflectance(%)
-----------Spectrum Setting ------------
Integration Time : 20ms
Average : 10
Boxcar : 0
Background removal :  enabled
linearity correction :  enabled
SC :  disabled
Intensity correction :  disabled
DWT denoise :  enabled
savitzky-golay :  disabled
FFT :  disabled
Running average :  disabled
Kalman :  disabled
High pass :  disabled
---------------BEGIN--------------------
Wavelength(nm)             Reflectance(%)
200.29               0
200.75        49.69604
201.21         44.3377
201.67        40.68552
202.13        39.21868
202.58        39.67812
203.04        42.39386
203.50        47.54352
203.96        54.03148
204.42        60.45317
204.88        66.18588
205.34        70.15042
205.80        71.80663
206.26        71.10006
206.72        67.91312
207.18        63.87182
207.64        60.09111
208.10         56.3647
208.55         52.7271
209.01         47.7668
209.47        41.87466
209.93        38.01228
210.39        36.79473
210.85        37.89481
211.31        41.57331
211.77        49.21381
212.23        66.21797
212.69        107.7681
213.14        174.9725
213.60        167.6814
214.06        116.8314
214.52        83.62754
214.98        69.33897
215.44        63.85669
215.90         61.1312
216.36         60.6993
216.81        62.80546
217.27        67.79881
217.73        78.26286
218.19        91.50323
218.65        92.37119
219.11          78.352
219.57        60.74777
220.02         49.5271
220.48        49.05984
220.94        58.05943
221.40        77.12301
221.86         105.724
222.32        125.3423
222.77        119.1796
223.23         99.3594
223.69        78.68568
224.15        64.27328
224.61        55.43761
225.06        49.18674
225.52        45.38539
225.98         43.8434
226.44        44.02342
226.90        45.84953
227.36        48.07792
227.81        48.52798
228.27        46.96309
228.73        43.98021
229.19        41.20685
229.65        40.55608
230.10        42.05057
230.56        45.05157
231.02        47.90865
231.48        48.05429
231.93        45.23131
232.39        40.87246
232.85        36.84818
233.31        35.53685
233.77        37.11633
234.22        40.70537
234.68        44.86435
235.14         47.4453
235.60        47.76934
236.05        46.40073
236.51        44.09992
236.97        42.52415
237.43        42.46388
237.88        43.58909
238.34        45.27776
238.80        46.72695
239.26        47.73217
239.71         48.8626
240.17        50.65548
240.63        54.60769
241.08        61.51277
241.54        70.64005
242.00        80.99179
242.46        91.57136
242.91        103.2603
243.37        116.6409
243.83        132.5976
244.28        147.5907
244.74        152.5462
245.20        145.0351
245.66        132.3071
246.11        121.5113
246.57         113.774
247.03        107.4584
247.48        100.8624
247.94         92.5942
248.40        84.88732
248.85        79.27567
249.31        75.76138
249.77        73.07026
250.22        70.29204
250.68        66.50837
251.14        62.75407
251.59        62.72721
252.05          67.722
252.51        75.86325
252.96        81.25776
253.42         79.2071
253.88        71.20065
254.33        60.14942
254.79         51.5797
255.25        49.93652
255.70        54.46336
256.16        62.77913
256.62        70.38378
257.07         70.7224
257.53        65.24006
257.99        58.11148
258.44        52.14281
258.90        49.63918
259.35        49.51631
259.81        50.63681
260.27        51.86704
260.72        51.96455
261.18        50.99698
261.63        49.36465
262.09         47.6836
262.55         46.1208
263.00        44.67845
263.46        43.38963
263.91        42.11544
264.37        40.96309
264.83          39.919
265.28        38.94193
265.74        38.19736
266.19        37.63337
266.65        37.26128
267.11        36.98185
267.56        36.67611
268.02        36.16025
268.47        35.40958
268.93        34.51857
269.38        33.54996
269.84        32.65064
270.30        31.85452
270.75        31.10807
271.21        30.48094
271.66        30.02589
272.12        29.72921
272.57        29.55716
273.03        29.34052
273.48        28.80577
273.94        27.96104
274.39        26.88354
274.85        25.84325
275.31        25.10713
275.76        24.69738
276.22        24.53285
276.67        24.43462
277.13        24.20592
277.58        23.76831
278.04        23.22045
278.49        22.60856
278.95        22.08805
279.40        21.65931
279.86        21.32525
280.31        21.00968
280.77        20.68479
281.22        20.31697
281.68        19.96267
282.13        19.64976
282.59        19.46607
283.04        19.39893
283.50        19.43395
283.95        19.49319
284.41        19.46064
284.86        19.31367
285.32        19.10178
285.77        18.90676
286.22        18.89058
286.68        19.06938
287.13        19.35898
287.59        19.65656
288.04        19.76976
288.50         19.6831
288.95         19.4538
289.41        19.19239
289.86        19.01086
290.32        18.97078
290.77        19.02559
291.22        19.17437
291.68        19.40433
292.13        19.70517
292.59        20.11415
293.04        20.61266
293.50        21.17761
293.95        21.79957
294.40        22.48216
294.86        23.26945
295.31        24.22713
295.77         25.3654
296.22        26.65039
296.68          28.014
297.13         29.3394
297.58         30.6119
298.04         31.8702
298.49          33.181
298.95        34.66692
299.40        36.33316
299.85        38.12363
300.31        39.96822
300.76        41.74914
301.21        43.44124
301.67        45.10452
302.12        46.73233
302.58        48.38387
303.03        50.05143
303.48        51.75199
303.94        53.54369
304.39        55.46225
304.84        57.52855
305.30        59.72735
305.75        61.96551
306.20        64.17478
306.66        66.33058
307.11        68.40788
307.57        70.40769
308.02        72.24477
308.47        73.93837
308.93        75.50935
309.38        77.01941
309.83        78.67668
310.29        80.51837
310.74        82.48186
311.19        84.40216
311.65        85.97221
312.10        87.09931
312.55        87.87243
313.00        88.49844
313.46        89.31132
313.91        90.37505
314.36        91.61718
314.82        92.87533
315.27        93.89799
315.72        94.58937
316.18        95.05223
316.63         95.3811
317.08        95.76821
317.53        96.27695
317.99        96.84737
318.44        97.42023
318.89        97.87384
319.35        98.17375
319.80        98.36358
320.25        98.53242
320.70        98.81811
321.16        99.24743
321.61        99.81843
322.06        100.3959
322.51        100.7675
322.97        100.8765
323.42        100.7901
323.87        100.7169
324.32        101.0184
324.78        101.7344
325.23        102.8311
325.68        103.9499
326.13        104.4957
326.59          104.32
327.04        103.6251
327.49        102.8204
327.94        102.5873
328.39        103.0936
328.85        104.1064
329.30        105.3694
329.75        106.1694
330.20        106.2817
330.66        105.9015
331.11         105.381
331.56        105.2051
332.01        105.5322
332.46        106.1837
332.92        106.9418
333.37        107.6045
333.82        108.0137
334.27        108.2921
334.72         108.481
335.17        108.6251
335.63        108.7604
336.08        108.9189
336.53        109.1845
336.98        109.7532
337.43        110.6505
337.88        111.8004
338.34        113.0296
338.79        114.1529
339.24        115.0167
339.69        115.6576
340.14        116.0484
340.59        116.1765
341.05          116.11
341.50         115.865
341.95        115.6137
342.40        115.6157
342.85        115.9451
343.30        116.5553
343.75        117.3348
344.20        118.0752
344.66        118.6959
345.11         119.224
345.56        119.6804
346.01        120.1129
346.46        120.5397
346.91        120.9431
347.36        121.2818
347.81        121.5135
348.26        121.6373
348.72        121.6678
349.17        121.7065
349.62        121.9485
350.07        122.4153
350.52        123.0609
350.97        123.6457
351.42        123.7819
351.87         123.408
352.32        122.6568
352.77        121.8623
353.22        121.5144
353.67        121.7087
354.13        122.2897
354.58        122.9651
355.03        123.2062
355.48        122.8688
355.93        122.1103
356.38        121.2339
356.83        120.6929
357.28        120.5752
357.73        120.7149
358.18        120.8346
358.63        120.5015
359.08        119.6229
359.53        118.3747
359.98        117.0102
360.43        115.8825
360.88        115.0783
361.33        114.4854
361.78         113.966
362.23        113.3088
362.68        112.4671
363.13        111.5362
363.58        110.6011
364.03        109.7742
364.48        109.0774
364.93        108.4446
365.38        107.8494
365.83        107.2679
366.28        106.6837
366.73        106.1171
367.18        105.5157
367.63        104.7886
368.08        103.9322
368.53        102.9767
368.98        102.0321
369.43        101.2748
369.88        100.7394
370.33        100.3709
370.78        100.0575
371.23        99.61399
371.68         98.9867
372.13        98.22868
372.58        97.41875
373.03        96.68211
373.48        96.05104
373.93        95.47784
374.38        94.91478
374.83        94.29609
375.28        93.60628
375.72        92.85899
376.17         92.1352
376.62        91.43764
377.07         90.7877
377.52        90.20004
377.97        89.67081
378.42        89.20896
378.87        88.81409
379.32         88.4501
379.77        88.17179
380.22        88.05743
380.67        88.08357
381.11        88.24558
381.56        88.27498
382.01         87.8324
382.46        86.90019
382.91        85.65395
383.36        84.43948
383.81        83.72609
384.26         83.5808
384.71        83.83699
385.15         84.2731
385.60         84.4929
386.05        84.36531
386.50         84.0031
386.95        83.46526
387.40        82.85138
387.85        82.23199
388.29        81.54123
388.74        80.94537
389.19        80.46945
389.64        80.11443
390.09        79.86225
390.54        79.67627
390.98        79.46834
391.43        79.25034
391.88        79.02612
392.33        78.79094
392.78        78.51452
393.23        78.19494
393.67        77.87392
394.12        77.63239
394.57        77.27244
395.02        76.87559
395.47        76.80248
395.91        76.97736
396.36        76.90142
396.81        76.55627
397.26        76.20506
397.71        75.91056
398.15        75.63604
398.60        75.47836
399.05        75.35307
399.50        75.24271
399.95         75.1887
400.39        75.16998
400.84        74.99538
401.29        74.68037
401.74        74.44566
402.18        74.27613
402.63        73.86525
403.08        73.35117
403.53        73.13906
403.97        73.25231
404.42        73.51256
404.87        73.75707
405.32        73.75246
405.76        73.43342
406.21        72.98163
406.66        72.52096
407.11        72.10136
407.55        71.88979
408.00        72.11986
408.45        72.64802
408.90        72.99053
409.34        72.93033
409.79        72.36305
410.24        71.53491
410.68        71.05198
411.13        71.00749
411.58        71.08694
412.03        71.16788
412.47        71.18297
412.92        71.06094
413.37        70.85559
413.81        70.65679
414.26        70.66331
414.71         70.8767
415.15        71.25814
415.60        71.65817
416.05        71.90049
416.49        71.93127
416.94        71.79823
417.39        71.60354
417.83         71.4901
418.28        71.50746
418.73        71.61109
419.17        71.76192
419.62        71.89986
420.07        71.98492
420.51        72.00971
420.96        72.01212
421.41        71.95089
421.85        71.80346
422.30        71.76467
422.74        71.72475
423.19        71.38818
423.64        70.84571
424.08        70.69404
424.53        70.95172
424.98        71.16386
425.42        71.30928
425.87        71.73088
426.31        72.27101
426.76        72.29592
427.21        71.86418
427.65         71.5546
428.10        71.46687
428.54         71.4641
428.99        71.61303
429.44        71.74873
429.88        71.93501
430.33         72.6609
430.77        73.55173
431.22        73.89066
431.66         73.5986
432.11        72.79118
432.56        71.82545
433.00        71.71396
433.45        72.59681
433.89        73.25291
434.34        73.00115
434.78        74.23164
435.23        73.53964
435.67        71.41108
436.12        72.61324
436.57        72.69505
437.01        73.07749
437.46        73.30132
437.90        73.45029
438.35        72.52346
438.79        72.91579
439.24        72.82566
439.68        72.90672
440.13        73.26317
440.57        73.83865
441.02        73.86401
441.46        73.43708
441.91        74.08582
442.35        75.31902
442.80        75.06403
443.24        73.65234
443.69        73.64387
444.13         74.9183
444.58        75.42477
445.02        75.09055
445.47        75.04784
445.91         75.3557
446.36        75.59199
446.80        75.73154
447.24        75.98118
447.69        76.27869
448.13        76.25018
448.58         76.0226
449.02        76.17007
449.47        76.61897
449.91         76.7228
450.36        76.48132
450.80        76.23132
451.25        76.08438
451.69        76.00156
452.13        76.02229
452.58        76.13927
453.02        76.29247
453.47        76.39389
453.91        76.40367
454.36        76.34872
454.80        76.22384
455.24         75.9865
455.69        75.65948
456.13        75.33778
456.58        75.10718
457.02        74.67851
457.46        74.24993
457.91        74.49893
458.35        75.11971
458.79        75.14496
459.24        74.57522
459.68        73.74164
460.13        72.94494
460.57        72.98382
461.01        72.96446
461.46        73.45461
461.90        73.94631
462.34        74.66181
462.79        74.40122
463.23        74.47806
463.68        74.48411
464.12        74.17242
464.56        73.56229
465.01        72.77071
465.45        72.03054
465.89        71.94473
466.34        72.35667
466.78        72.81264
467.22        73.16883
467.67         72.4529
468.11        72.01086
468.55         71.9712
468.99         72.5677
469.44        72.60874
469.88        72.07432
470.32        71.68914
470.77        71.54218
471.21        71.44456
471.65        71.39526
472.10        71.44778
472.54        71.55296
472.98        71.57004
473.42        71.45714
473.87        71.47173
474.31        71.50818
474.75        70.99577
475.20        70.19302
475.64        70.19462
476.08        70.91967
476.52         71.1228
476.97        70.68618
477.41        70.81031
477.85        71.10078
478.29        70.58439
478.74        70.69059
479.18        71.25822
479.62        70.82456
480.06        70.85285
480.50         70.7655
480.95        70.69758
481.39         70.6313
481.83        70.53987
482.27         70.1169
482.72        70.80178
483.16         70.3389
483.60        70.41373
484.04         70.4051
484.48        70.58393
484.93        70.76027
485.37        70.28106
485.81        69.98883
486.25         69.6516
486.69        70.86421
487.14        72.43948
487.58        70.57101
488.02        70.71589
488.46         69.1101
488.90        69.75703
489.34        70.89937
489.79        71.76687
490.23        71.00287
490.67        70.33618
491.11        69.79173
491.55        69.56175
491.99        69.63431
492.43        69.48229
492.88        69.13058
493.32        69.08628
493.76        69.34494
494.20        69.55125
494.64         69.6558
495.08         69.8215
495.52         69.9873
495.96        69.91416
496.41        69.65062
496.85        69.54611
497.29        69.51546
497.73         69.5612
498.17        68.86355
498.61        68.86941
499.05        69.25189
499.49        69.47417
499.93        69.23354
500.37        69.24183
500.82        69.44311
501.26        69.40353
501.70        69.10522
502.14        69.55434
502.58        69.40459
503.02        69.58322
503.46        69.67879
503.90        69.81942
504.34          69.936
504.78        69.88885
505.22        69.65028
505.66        69.32937
506.10        69.08502
506.54        68.87073
506.98        68.61057
507.42        69.52279
507.86        69.14529
508.30        69.20664
508.74        69.39484
509.18        69.35477
509.62        69.22156
510.06        69.08957
510.50        69.00642
510.94        68.91296
511.38        68.82675
511.82        68.78802
512.26        68.79934
512.70        68.85969
513.14         68.9374
513.58        68.97368
514.02        68.95447
514.46        68.89245
514.90        68.81956
515.34        68.79091
515.78        68.81622
516.22        68.87292
516.66        68.92899
517.10        68.93331
517.54        68.87714
517.98        68.78873
518.42        68.68781
518.86        68.60378
519.30        68.55121
519.74        68.51768
520.18        68.52589
520.62        68.61049
521.06        68.76987
521.50         68.9956
521.93        69.22607
522.37        69.33746
522.81        69.31303
523.25        69.17989
523.69        69.02167
524.13        68.97453
524.57          69.062
525.01        69.23325
525.45        69.40626
525.89        69.44743
526.32        69.31887
526.76        69.09423
527.20        68.82315
527.64        68.58659
528.08         68.4183
528.52        68.29287
528.96        68.22855
529.40        68.25397
529.83        68.35872
530.27        68.54141
530.71        68.72916
531.15        68.80987
531.59         68.7599
532.03        68.60425
532.46        68.40446
532.90        68.31059
533.34        68.34256
533.78        68.41983
534.22        68.48586
534.66        68.53819
535.09          68.508
535.53        68.26928
535.97        67.90073
536.41        67.69985
536.85        67.70226
537.28        67.76559
537.72        67.86449
538.16        67.99438
538.60        68.12669
539.04         68.3215
539.47        68.42076
539.91        68.48055
540.35        68.44954
540.79        68.34254
541.22         68.2055
541.66        68.13998
542.10        68.16093
542.54        68.24194
542.97        68.32463
543.41        68.34637
543.85        68.28045
544.29        68.16179
544.72        68.01724
545.16        67.91503
545.60        67.85847
546.04        67.87003
546.47        67.93806
546.91          67.955
547.35        67.94447
547.79        68.09602
548.22        68.34933
548.66        68.43657
549.10        68.41317
549.53        68.37373
549.97        68.34885
550.41        68.17921
550.84        67.92903
551.28        67.87341
551.72        67.99274
552.15        68.02699
552.59        67.99334
553.03        68.03149
553.46        68.20939
553.90        68.24841
554.34        68.16451
554.77        68.00966
555.21        67.86923
555.65        67.87743
556.08        68.02309
556.52        68.19098
556.96        68.31338
557.39        68.36765
557.83        68.43832
558.27        68.24057
558.70        67.85936
559.14        67.66689
559.57        67.65228
560.01        67.47631
560.45        67.22682
560.88        67.38174
561.32        67.86781
561.75        68.14637
562.19        68.16993
562.63        68.06275
563.06        67.89855
563.50        67.87988
563.93        67.94518
564.37        67.96451
564.80         67.9524
565.24        67.84312
565.68        67.51785
566.11        68.24364
566.55        67.57369
566.98        67.46297
567.42        67.33492
567.85        67.50665
568.29        67.93067
568.72        68.28886
569.16        68.62968
569.60        68.72275
570.03         68.7711
570.47        68.94051
570.90        69.39398
571.34        68.21188
571.77        69.09358
572.21        69.15319
572.64        68.82869
573.08        69.40645
573.51        68.61338
573.95         68.6634
574.38        69.03712
574.82        69.14238
575.25        68.79877
575.69        68.79446
576.12        69.12828
576.56        68.56899
576.99        68.43003
577.42        68.65446
577.86        68.61555
578.29        69.42808
578.73        69.83601
579.16        69.63891
579.60        68.69051
580.03         68.4694
580.47         68.5532
580.90        69.54221
581.33        69.68777
581.77        69.64949
582.20        69.33849
582.64        69.79889
583.07        69.51426
583.51        69.29192
583.94        68.88329
584.37        68.86499
584.81         69.0802
585.24         69.1013
585.68        68.84242
586.11        69.05868
586.54        69.34135
586.98        68.57536
587.41        68.24657
587.85        68.68565
588.28        68.58643
588.71         68.3935
589.15        68.17113
589.58         68.3964
590.01        68.02063
590.45        68.13913
590.88         68.8263
591.31        68.82924
591.75        68.37096
592.18        68.02045
592.61         67.9697
593.05        68.56078
593.48        69.09238
593.91         69.1739
594.35        68.85939
594.78        68.16673
595.21        67.50608
595.65        67.93227
596.08        68.96673
596.51        69.07165
596.94        68.38344
597.38        68.05054
597.81        68.16638
598.24        68.78736
598.68        68.17113
599.11        68.00224
599.54        69.39129
599.97        68.67879
600.41        68.61928
600.84        67.95473
601.27        68.33589
601.70        68.47605
602.14        68.51479
602.57        68.21965
603.00        68.09528
603.43        67.60805
603.87        68.38324
604.30        68.58733
604.73        68.71276
605.16        67.95858
605.60        67.92654
606.03         67.5703
606.46        67.37289
606.89          67.614
607.32        68.12362
607.76        67.85819
608.19        68.18257
608.62        67.98054
609.05        67.78944
609.48        67.80538
609.92        68.95346
610.35        68.25394
610.78        67.67868
611.21        67.91067
611.64        67.83824
612.07        68.15794
612.50        68.00051
612.94        68.05055
613.37        68.15531
613.80        68.00381
614.23        67.67346
614.66         67.5003
615.09        67.56409
615.52        67.61356
615.96         67.5875
616.39        67.69045
616.82        67.96397
617.25        67.43147
617.68        67.60867
618.11        67.79324
618.54        67.95791
618.97        68.00803
619.40        67.84324
619.84        67.50433
620.27        67.37055
620.70         67.3289
621.13        67.40427
621.56        67.12963
621.99        66.56586
622.42        66.37395
622.85        66.63905
623.28        66.53782
623.71        66.70216
624.14        67.05361
624.57        67.23874
625.00         67.0519
625.43        67.42554
625.86        67.33349
626.29        67.11753
626.72        67.06274
627.15        67.00287
627.58        66.99761
628.01        66.93566
628.44        66.94675
628.87         66.8505
629.30        66.63917
629.73        66.62321
630.16        66.61621
630.59        66.70278
631.02          66.895
631.45         67.1595
631.88         67.2583
632.31        67.11846
632.74        67.47268
633.17        67.10655
633.60        67.03037
634.03        66.89808
634.46        66.73148
634.89        66.54872
635.32        66.41965
635.75        66.37361
636.18        66.31905
636.61        66.26523
637.04        66.26155
637.47         66.3036
637.89        66.36782
638.32        66.41357
638.75        66.44183
639.18        66.44536
639.61         66.4202
640.04         66.3848
640.47        66.37177
640.90        66.38937
641.33        66.43419
641.76        66.48087
642.18        66.49536
642.61         66.4492
643.04        66.35954
643.47        66.27021
643.90        66.25087
644.33        66.31183
644.76        66.43382
645.18        66.55132
645.61        66.53796
646.04        66.38226
646.47        66.13393
646.90         65.8843
647.33        65.76665
647.75         65.7866
648.18         65.9632
648.61        66.26526
649.04         66.3701
649.47        66.18528
649.89        66.84035
650.32        66.53391
650.75        66.45357
651.18        66.18555
651.61        66.15415
652.03        66.36154
652.46        66.55818
652.89         66.6457
653.32         66.4737
653.74        66.26438
654.17        65.90548
654.60        66.65243
655.03        66.88919
655.46        65.73537
655.88        65.91783
656.31        68.56191
656.74        70.12823
657.16        71.57688
657.59        72.15044
658.02        68.31023
658.45        67.55165
658.87        66.48535
659.30        66.92809
659.73        66.62023
660.15        67.74637
660.58        66.17606
661.01        66.09655
661.44        66.40816
661.86        66.21243
662.29        65.53213
662.72        65.91853
663.14        66.08168
663.57        66.18694
664.00        65.93462
664.42        66.01666
664.85         66.4397
665.27        66.83607
665.70         67.0667
666.13        67.13727
666.55        67.02812
666.98        66.67251
667.41        66.16141
667.83        66.07892
668.26        65.78933
668.69        65.80913
669.11        65.91142
669.54        66.05269
669.96        66.20745
670.39        66.38499
670.82         66.5617
671.24        66.66368
671.67        66.67547
672.09        66.59959
672.52        66.49244
672.94        66.40579
673.37        66.36417
673.80        66.34262
674.22        66.34779
674.65        66.35239
675.07          66.364
675.50         66.3811
675.92        66.38029
676.35        66.30701
676.77        66.16153
677.20        65.96216
677.62        65.77026
678.05        65.68465
678.47        65.72403
678.90        65.86122
679.32        66.03701
679.75        66.16847
680.17        66.22293
680.60        66.22562
681.02        66.20239
681.45        66.18962
681.87        66.21353
682.30        66.25127
682.72        66.30573
683.15        66.34314
683.57        66.37255
684.00        66.38824
684.42        66.41919
684.85         66.5171
685.27        66.67235
685.70        66.87007
686.12        67.03883
686.54        67.08916
686.97        67.00058
687.39        66.80937
687.82        66.57565
688.24         66.4201
688.66        66.37477
689.09        66.40459
689.51         66.4836
689.94        66.54488
690.36        66.56842
690.78        66.53896
691.21         66.4956
691.63         66.5112
692.06        66.59852
692.48        66.73314
692.90        66.84786
693.33        66.84849
693.75        66.71705
694.17        66.46329
694.60        66.20779
695.02        66.13998
695.44        66.28008
695.87         66.6022
696.29        66.95741
696.71        66.91558
697.14        66.53815
697.56        66.30248
697.98         66.2844
698.41        66.42416
698.83        66.36145
699.25        66.62405
699.68        66.96693
700.10        67.10863
700.52        66.97606
700.94        66.67322
701.37        66.35329
701.79        66.25894
702.21        66.43708
702.64         66.7865
703.06        67.17764
703.48          67.383
703.90        67.33995
704.33        67.13197
704.75        66.83617
705.17        66.56428
705.59        66.37183
706.01        66.22509
706.44         66.1581
706.86        66.24326
707.28        66.46369
707.70        66.80399
708.12        67.17534
708.55         67.4055
708.97        67.46542
709.39        67.41656
709.81        67.30656
710.23        67.21069
710.66        67.16009
711.08        67.15852
711.50        67.15955
711.92        67.10158
712.34        66.97854
712.76        66.82864
713.19        66.68237
713.61        66.62199
714.03        66.65387
714.45        66.75784
714.87        66.91643
715.29        67.10725
715.71        67.30839
716.13        67.50417
716.56        67.65845
716.98        67.80547
717.40        67.90314
717.82        67.95126
718.24        67.91566
718.66        67.74516
719.08        67.46055
719.50        67.11142
719.92        66.79765
720.34        66.66544
720.76        66.74287
721.19        66.95794
721.61        67.28027
722.03        67.60268
722.45        67.86477
722.87        68.08316
723.29        68.19739
723.71        68.08786
724.13        67.75639
724.55        67.30482
724.97        66.88622
725.39        66.48047
725.81        66.59294
726.23        66.78157
726.65        67.08568
727.07        67.48634
727.49        67.68337
727.91        67.89945
728.33         68.0555
728.75        68.16298
729.17         68.2211
729.59        68.21207
730.01         68.1525
730.43        68.07909
730.85          68.005
731.27        67.92931
731.69        67.85332
732.10        67.76922
732.52        67.67775
732.94        67.60536
733.36        67.57298
733.78        67.47867
734.20        67.31233
734.62        67.34083
735.04        67.65968
735.46        67.16383
735.88        67.84538
736.30        68.05482
736.72        68.34485
737.13         68.6001
737.55        68.72472
737.97        68.85847
738.39        68.92719
738.81        68.51009
739.23         67.8153
739.65        67.83348
740.06        68.43991
740.48        68.67336
740.90        68.46323
741.32        68.37048
741.74        68.45691
742.16        68.53568
742.57        68.61268
742.99        68.71892
743.41        68.79482
743.83        68.72995
744.25        68.51676
744.67         68.1846
745.08        67.86114
745.50        67.73435
745.92        67.85189
746.34        68.13985
746.75        68.48097
747.17        68.66638
747.59        68.64879
748.01        68.51517
748.42        68.31834
748.84        68.13483
749.26        68.03276
749.68        67.96278
750.09         67.9367
750.51        68.15327
750.93        68.46978
751.35        68.36584
751.76        67.90576
752.18        67.67311
752.60        67.69854
753.01        67.66386
753.43        67.53407
753.85        67.44767
754.27        67.41233
754.68        67.39892
755.10        67.42824
755.52        67.52591
755.93        67.68061
756.35          67.881
756.77        68.12744
757.18        68.27666
757.60        68.29327
758.02        68.45754
758.43        68.79847
758.85        68.10418
759.26        68.53217
759.68        68.25644
760.10        67.97192
760.51        68.19138
760.93        68.47042
761.34        68.50986
761.76        68.32572
762.18        68.40939
762.59        68.76711
763.01        68.75695
763.42         68.4825
763.84        68.39977
764.26        68.55332
764.67        68.73457
765.09        68.88399
765.50        68.70297
765.92        68.32104
766.33         68.2355
766.75        68.36137
767.16         68.2792
767.58        67.96679
768.00         67.6985
768.41        67.62481
768.83        68.00294
769.24         68.6235
769.66        68.83464
770.07        68.59386
770.49        68.14153
770.90        67.73164
771.32        68.04398
771.73        68.92728
772.15        69.26831
772.56         69.0022
772.97        68.77649
773.39        68.70396
773.80        68.66335
774.22        68.66277
774.63        68.78718
775.05        68.92615
775.46        68.97404
775.88        68.87576
776.29         68.6899
776.70        68.49796
777.12        68.45583
777.53        68.60469
777.95         68.8513
778.36        69.12389
778.77        69.26364
779.19        69.25005
779.60        69.15635
780.02        69.00283
780.43        68.91211
780.84        68.93961
781.26        68.73473
781.67        68.45494
782.09        69.03769
782.50        70.16641
782.91        70.19091
783.33        69.20525
783.74        68.83303
784.15         69.1534
784.57         69.2152
784.98        69.04246
785.39        69.10399
785.81        69.40438
786.22        69.81906
786.63        70.22078
787.04        70.40368
787.46        70.34205
787.87        70.08905
788.28        69.79523
788.70        69.66864
789.11        69.73504
789.52        69.95531
789.93        70.22738
790.35        70.37212
790.76        70.34748
791.17        70.19727
791.58        70.00198
792.00        69.82545
792.41        69.70928
792.82        69.75665
793.23        69.88734
793.65        69.64404
794.06         69.1755
794.47         69.2807
794.88        69.83897
795.29        70.02023
795.71        69.75111
796.12        69.55809
796.53         69.5284
796.94        69.48412
797.35        69.50476
797.76          69.891
798.18         70.4781
798.59        70.77392
799.00        70.68455
799.41        70.44181
799.82        70.16867
800.23        69.99318
800.64        69.97032
801.06        70.02622
801.47        70.14462
801.88        70.20684
802.29         70.1717
802.70        70.07421
803.11        69.93366
803.52         69.7757
803.93        69.63997
804.34        69.53461
804.75        69.47295
805.17         69.5564
805.58        69.84081
805.99        69.99032
806.40        70.04877
806.81        70.77249
807.22        71.81779
807.63        71.60393
808.04        70.33933
808.45        69.74986
808.86        69.98142
809.27        70.10287
809.68         70.0046
810.09        69.95378
810.50        69.93073
810.91        69.87039
811.32        69.85799
811.73        70.02267
812.14        70.37331
812.55        70.86554
812.96        71.34499
813.37        71.52099
813.78        71.31803
814.19        70.84903
814.60        70.27478
815.01         69.8082
815.42        69.50764
815.83        69.31591
816.24        69.22756
816.65        69.22947
817.05        69.31382
817.46        69.47194
817.87        69.66587
818.28        69.77763
818.69         69.7841
819.10         69.6899
819.51        69.59103
819.92        69.67436
820.33        69.96993
820.74        70.40248
821.14         70.8279
821.55        71.01148
821.96        70.90407
822.37        70.59257
822.78        70.18559
823.19        69.86774
823.60        69.71331
824.00        69.69264
824.41        69.75945
824.82        69.93895
825.23        70.19881
825.64        70.53693
826.04        70.86277
826.45        70.98314
826.86        70.87701
827.27        70.59772
827.68        70.24468
828.08        70.02866
828.49        69.96171
828.90        69.99765
829.31        70.12855
829.72        70.33518
830.12        70.61264
830.53        70.92513
830.94        71.15195
831.35        71.03676
831.75        70.56326
832.16         69.7886
832.57        68.99957
832.97        68.63443
833.38        68.78771
833.79        69.30547
834.20        69.96729
834.60        70.41472
835.01        70.54552
835.42        70.51206
835.82        70.38053
836.23         70.1882
836.64        70.01955
837.04        69.81863
837.45        69.75285
837.86        70.16809
838.26        71.11635
838.67        72.45263
839.08        73.76112
839.48        74.24074
839.89         73.6884
840.29         72.3886
840.70        70.94808
841.11        70.06438
841.51        69.92992
841.92        70.31854
842.33         71.0376
842.73        71.73861
843.14        72.15825
843.54        72.45258
843.95        72.63121
844.35        72.76334
844.76        72.85024
845.17        72.83437
845.57        72.70916
845.98        72.46333
846.38        72.13732
846.79        71.76098
847.19        71.39783
847.60        71.10948
848.00        70.93169
848.41        70.82935
848.81        70.82265
849.22        70.85038
849.62        70.93217
850.03        71.06796
850.43          71.228
850.84        71.29883
851.24        71.30332
851.65        71.18515
852.05        71.13001
852.46        71.34914
852.86        71.86169
853.27         72.5715
853.67        73.16502
854.07        73.33266
854.48        73.00577
854.88        72.31878
855.29        71.45243
855.69         70.8818
856.10        70.69765
856.50        70.85365
856.90        71.16928
857.31        71.35178
857.71        71.35587
858.12        71.20651
858.52        71.01294
858.92        70.83504
859.33        70.68892
859.73        70.58401
860.13        70.46542
860.54        70.28101
860.94        70.07085
861.34        69.85317
861.75        69.68848
862.15        69.70989
862.55        69.91138
862.96        70.19969
863.36        70.53317
863.76         70.7548
864.17        70.79688
864.57        70.73721
864.97        70.51421
865.38        70.04855
865.78        69.38509
866.18        68.53815
866.58        67.74546
866.99        67.42302
867.39        67.69424
867.79        68.44887
868.19        69.35548
868.60        69.87024
869.00        69.89351
869.40        69.52558
869.80        69.05383
870.21        69.03174
870.61        69.65008
871.01        70.62733
871.41          71.558
871.81        71.89783
872.22        71.54119
872.62        70.66919
873.02        69.60416
873.42        68.89004
873.82        68.70945
874.22        68.90783
874.63        69.24355
875.03        69.34879
875.43        69.10544
875.83        68.64915
876.23        68.15849
876.63        67.88571
877.03        67.90587
877.44        68.11948
877.84        68.40003
878.24        68.55872
878.64        68.49647
879.04        68.13029
879.44        67.72571
879.84         67.7856
880.24        68.34526
880.64         69.2092
881.04        69.95034
881.44        69.89432
881.84        68.92368
882.24        67.30357
882.65        65.59054
883.05        64.63608
883.45        64.66837
883.85        65.45441
884.25        66.61631
884.65        67.49142
885.05        67.84644
885.45        67.86129
885.85         67.7337
886.25        67.77153
886.65        68.05478
887.05        68.44477
887.45        68.80209
887.85         68.9316
888.25        68.78241
888.65        68.44791
889.04        68.05093
889.44        67.79099
889.84        67.70731
890.24        67.74026
890.64        67.81345
891.04        67.80293
891.44        67.67948
891.84        67.50679
892.24        67.32246
892.64        67.17038
893.04         67.0778
893.44        67.03493
893.83        67.09435
894.23        67.28778
894.63        67.63135
895.03        68.09501
895.43        68.60128
895.83        69.03072
896.23        69.31839
896.63        69.44075
897.02        69.41607
897.42        69.31744
897.82        69.16444
898.22        68.98119
898.62        68.68988
899.01        68.15319
899.41        67.41431
899.81         66.5433
900.21        65.79988
900.61        65.59299
901.00        65.99294
901.40        66.85001
901.80        67.85134
902.20        68.48694
902.59        68.61885
902.99        68.37634
903.39        67.93907
903.79        67.61437
904.18        67.49838
904.58        67.49146
904.98        67.57568
905.38        67.73933
905.77        67.96777
906.17        68.31898
906.57        68.67198
906.96        68.80868
907.36        68.67482
907.76        68.31631
908.15        67.99769
908.55        68.13271
908.95         68.7866
909.34        69.82102
909.74        70.81529
910.14         71.1668
910.53        70.71285
910.93        69.70217
911.33         68.4482
911.72         67.4224
912.12        66.84981
912.52        66.59171
912.91        66.59705
913.31        66.80399
913.70        67.15537
914.10         67.6509
914.49        68.24156
914.89        68.73479
915.29        69.07944
915.68        69.28471
916.08        69.30022
916.47        69.15428
916.87        68.89391
917.26        68.50316
917.66        68.14351
918.05        67.92413
918.45        67.88217
918.84        68.04258
919.24        68.26225
919.64        68.41645
920.03        68.47127
920.42        68.41141
920.82        68.37366
921.21        68.52426
921.61        68.86805
922.00        69.38699
922.40        69.85071
922.79         70.0063
923.19        69.77282
923.58        69.28247
923.98        68.76669
924.37        68.50134
924.77        68.56708
925.16        68.82058
925.55        69.18916
925.95        69.52082
926.34         69.7485
926.74        69.90104
927.13        69.85629
927.52        69.35214
927.92        68.45772
928.31        67.28817
928.70        66.19651
929.10         65.6925
929.49        65.86865
929.89        66.51238
930.28        67.50594
930.67        68.50109
931.07        69.29337
931.46        70.03995
931.85        70.46999
932.24        70.21788
932.64        69.33237
933.03        67.89658
933.42        66.54111
933.82        66.20144
934.21        67.04577
934.60        68.86898
934.99        70.99382
935.39        72.16154
935.78        72.03425
936.17        70.86693
936.56         69.3147
936.96        68.42642
937.35        68.48196
937.74        69.16635
938.13        69.95247
938.53        70.03639
938.92        69.25311
939.31          67.949
939.70        66.62063
940.09        65.94411
940.49        66.04249
940.88        66.71419
941.27        67.65556
941.66         68.3183
942.05        68.51383
942.44        68.44258
942.84        68.26449
943.23        68.21632
943.62        68.38227
944.01        68.60622
944.40        68.92831
944.79        69.45602
945.18        70.14131
945.57        70.94685
945.97        71.51358
946.36        71.33576
946.75        70.30917
947.14        68.69627
947.53        66.96899
947.92        65.78842
948.31        65.32735
948.70        65.42067
949.09        65.89855
949.48        66.44471
949.87        66.91321
950.26        67.37444
950.65        67.81077
951.04        68.19554
951.43        68.50553
951.82        68.67982
952.21        68.70427
952.60        68.60199
952.99         68.4146
953.38        68.19772
953.77        67.99778
954.16        67.87449
954.55         67.8402
954.94        67.84454
955.33        67.95815
955.72        68.28506
956.11        68.81074
956.50        69.52282
956.89        70.08176
957.28        69.93163
957.66        68.98872
958.05          67.479
958.44        65.98036
958.83        65.32849
959.22        65.66458
959.61        66.75854
960.00        68.06631
960.39        68.57152
960.78        67.98024
961.16        66.63174
961.55         65.1116
961.94        64.16895
962.33         64.0018
962.72        64.40943
963.11        65.12283
963.49        65.66258
963.88        65.76312
964.27        65.58866
964.66        65.42076
965.04         65.6976
965.43        66.45751
965.82        67.59753
966.21        68.69641
966.60        68.97561
966.98         68.2134
967.37        66.75439
967.76        65.24782
968.15          64.507
968.53        64.69566
968.92        65.62815
969.31        66.83536
969.69        67.38483
970.08        66.91396
970.47        65.75199
970.86        64.58974
971.24        64.39781
971.63        65.36419
972.02        67.21576
972.40        69.31728
972.79        70.13779
973.17        69.30243
973.56        67.37233
973.95        65.22607
974.33        63.98934
974.72         63.9027
975.11        64.58121
975.49        65.69482
975.88        66.53351
976.26         66.8398
976.65        66.80092
977.04        66.47402
977.42        65.89278
977.81        65.10381
978.19        64.06511
978.58        63.11407
978.96        62.78458
979.35        63.16337
979.74        64.16072
980.12        65.44565
980.51        66.14925
980.89         66.1419
981.28        65.62684
981.66        65.00173
982.05        64.82993
982.43        65.26794
982.82        66.11843
983.20        67.28843
983.59        68.48691
983.97        69.62209
984.35        70.70848
984.74        71.53561
985.12        72.00652
985.51        72.03048
985.89        71.64907
986.28        71.10709
986.66        70.70918
987.04        70.62061
987.43        70.76744
987.81         71.0783
988.20        71.25043
988.58        71.22464
988.96        70.98824
989.35        70.72063
989.73        70.67656
990.12        70.86493
990.50        71.23515
990.88        71.41029
991.27        70.77594
991.65        69.29819
992.03         67.2916
992.42        65.41715
992.80        64.50663
993.18         64.7493
993.56        65.93084
993.95        67.56385
994.33        68.86589
994.71        69.38672
995.10        69.42822
995.48        69.24693
995.86        69.37991
996.24        69.96187
996.63        70.57665
997.01        71.31758
997.39        72.02712
997.77        72.53542
998.15        73.02679
998.54        73.02004
998.92        71.63227
999.30        69.00974
999.68        65.55703
1000.06        62.50833
1000.45        61.58734
1000.83        63.20669
1001.21         66.9995
1001.59        71.86156
1001.97        75.03574
1002.35        75.34515
1002.73        73.58673
1003.12        71.06065
1003.50         69.4029
1003.88        69.13911
1004.26        69.59109
1004.64        70.62223
1005.02        71.93461
1005.40        73.23044
1005.78        74.85242
1006.16        75.97534
1006.54        75.22627
1006.92         72.6181
1007.30         68.5991
1007.69        64.92063
1008.07        63.98944
1008.45        66.45403
1008.83        71.86626
1009.21        78.54024
1009.59         82.2693
1009.97        81.16083
1010.35        76.47066
1010.73        70.40751
1011.11         66.1402
1011.49        64.48984
1011.86        64.45308
1012.24        65.31482
1012.62        66.12775
1013.00        66.62168
1013.38        67.23001
1013.76        68.05409
1014.14        69.05495
1014.52        70.08636
1014.90        70.78274
1015.28         71.1567
1015.66        71.46034
1016.04         71.7582
1016.41        72.12207
1016.79        72.14691
1017.17         71.2174
1017.55        69.33031
1017.93        66.74964
1018.31        64.44253
1018.69        63.69518
1019.06        64.78208
1019.44        67.62725
1019.82         71.0764
1020.20        72.36934
1020.58         70.5554
1020.95        66.46928
1021.33        62.51181
1021.71        61.39732
1022.09        63.56826
1022.46        68.74699
1022.84        75.10071
1023.22         77.9478
1023.60        75.47141
1023.97        69.13623
1024.35        62.97259
1024.73        61.73899
