SpectraSmart Spectrum 2.9.0.0
--------- Device Information -----------
Spectrum Name :  反射率_0
Saving Time :  2024/04/27 00:38:19
Spectro-Module Model Name : SE2030-DUVN
Spectro-Module Serial Number : OS361AC55029948
Wavelength Start : 200
Wavelength End : 1025
Wavelength Unit : Wavelength(nm)
Spectrum Unit : Reflectance(%)
-----------Spectrum Setting ------------
Integration Time : 20ms
Average : 10
Boxcar : 0
Background removal :  enabled
linearity correction :  enabled
SC :  disabled
Intensity correction :  disabled
DWT denoise :  enabled
savitzky-golay :  disabled
FFT :  disabled
Running average :  disabled
Kalman :  disabled
High pass :  disabled
---------------BEGIN--------------------
Wavelength(nm)             Reflectance(%)
200.29               0
200.75        28.45844
201.21        30.53139
201.67        33.24428
202.13        36.06379
202.58        39.04493
203.04        43.14088
203.50        48.16422
203.96        52.17307
204.42          53.484
204.88        51.43745
205.34        47.54457
205.80        45.71329
206.26        46.76999
206.72        49.25923
207.18        51.09394
207.64         50.0638
208.10        45.83533
208.55         38.6421
209.01        28.63452
209.47        22.97144
209.93        26.09348
210.39        33.16687
210.85        40.15652
211.31        46.58796
211.77        54.65682
212.23        69.61543
212.69        104.1705
213.14        160.3424
213.60         154.743
214.06        112.0169
214.52        83.25182
214.98        69.34983
215.44        61.80301
215.90        55.89198
216.36        51.29185
216.81        48.13285
217.27        46.66887
217.73        47.99858
218.19        50.61102
218.65        48.60381
219.11        42.11496
219.57        35.34668
220.02        32.61499
220.48        36.73343
220.94        47.91214
221.40        67.99477
221.86        96.18693
222.32        113.5429
222.77        104.3765
223.23        81.65938
223.69        59.82043
224.15        46.80485
224.61        40.96814
225.06        38.46281
225.52         37.8552
225.98         37.7246
226.44        37.66458
226.90        38.27493
227.36        39.02832
227.81        38.90947
228.27        37.94969
228.73        36.22919
229.19        34.94151
229.65         35.6078
230.10         38.1616
230.56        42.05671
231.02        45.64807
231.48        46.30484
231.93        43.73527
232.39         39.3968
232.85        35.11126
233.31        33.19052
233.77        33.87512
234.22        36.37092
234.68        39.50631
235.14        41.55325
235.60        41.97624
236.05        41.30823
236.51        40.10666
236.97        39.51336
237.43         40.0395
237.88        41.31231
238.34        43.01466
238.80        44.94767
239.26        47.13761
239.71        50.25446
240.17        54.13636
240.63        58.20182
241.08        61.99064
241.54        64.67328
242.00        67.42941
242.46        73.52327
242.91        85.71407
243.37        105.9464
243.83        134.5615
244.28        157.8336
244.74        156.2485
245.20        131.0128
245.66        100.3147
246.11        79.54424
246.57        69.26219
247.03         64.5304
247.48        63.72338
247.94        64.40084
248.40         65.3576
248.85        67.12601
249.31        68.64714
249.77        68.43266
250.22        66.27327
250.68        61.39725
251.14        55.51718
251.59        54.78675
252.05        61.64823
252.51        73.18354
252.96        81.81011
253.42        81.27445
253.88        73.37785
254.33        61.90283
254.79        53.26434
255.25        52.77421
255.70        59.67417
256.16        71.13901
256.62        81.80759
257.07        83.69724
257.53        78.16686
257.99        70.09439
258.44        63.05887
258.90        59.96392
259.35        59.61657
259.81        60.81189
260.27        61.98782
260.72        61.41328
261.18        59.34785
261.63        56.45246
262.09        53.95255
262.55        52.60205
263.00        52.22589
263.46        52.47077
263.91         52.5585
264.37        51.82549
264.83        50.22129
265.28        48.09858
265.74        46.08525
266.19        44.64659
266.65        43.90281
267.11        43.55481
267.56         43.3518
268.02        42.91823
268.47         42.1534
268.93        41.23805
269.38        40.23607
269.84        39.27838
270.30        38.40686
270.75        37.55871
271.21        36.82514
271.66        36.30768
272.12        35.99439
272.57          35.805
273.03        35.58447
273.48        35.07487
273.94        34.27027
274.39        33.24332
274.85        32.15993
275.31        31.11585
275.76        30.15582
276.22        29.30965
276.67        28.58921
277.13        28.08797
277.58        27.75382
278.04        27.55424
278.49        27.38983
278.95        27.21284
279.40        26.94493
279.86        26.66478
280.31        26.26727
280.77         25.7008
281.22        24.96769
281.68        24.16618
282.13        23.45083
282.59        23.10448
283.04        23.12782
283.50        23.44302
283.95        23.86021
284.41         24.0717
284.86        24.00048
285.32        23.77273
285.77        23.50735
286.22        23.43188
286.68        23.59037
287.13        23.85846
287.59        24.18633
288.04        24.46331
288.50        24.66518
288.95        24.80802
289.41        24.88077
289.86        24.80003
290.32        24.61481
290.77        24.35433
291.22         24.1503
291.68        24.18572
292.13        24.49786
292.59        25.06576
293.04        25.81342
293.50          26.626
293.95        27.45671
294.40        28.34134
294.86        29.31779
295.31        30.43656
295.77        31.71071
296.22        33.09459
296.68        34.55405
297.13        36.02997
297.58         37.5187
298.04        39.04661
298.49        40.63237
298.95        42.32154
299.40        44.10337
299.85        45.94931
300.31        47.84146
300.76        49.73753
301.21        51.62466
301.67        53.52473
302.12         55.3809
302.58        57.19262
303.03        58.92342
303.48        60.61194
303.94        62.32635
304.39        64.10477
304.84        65.98551
305.30        67.96312
305.75        69.96371
306.20         71.9571
306.66        73.93636
307.11        75.87243
307.57        77.76408
308.02        79.50738
308.47        81.11214
308.93        82.59107
309.38        84.00133
309.83        85.55469
310.29        87.27962
310.74        89.10675
311.19        90.83788
311.65        92.11775
312.10        92.86169
312.55        93.19566
313.00        93.39487
313.46        93.88631
313.91        94.75438
314.36        95.90231
314.82        97.13412
315.27        98.14182
315.72        98.80251
316.18        99.22598
316.63        99.50188
317.08        99.81973
317.53          100.24
317.99        100.6959
318.44        101.1264
318.89        101.4118
319.35        101.5292
319.80        101.5378
320.25        101.5457
320.70        101.7164
321.16        102.0836
321.61        102.6352
322.06        103.2386
322.51        103.6834
322.97        103.9004
323.42        103.9499
323.87        103.9922
324.32        104.3157
324.78        104.9442
325.23        105.8604
325.68        106.7673
326.13        107.1832
326.59        106.9971
327.04        106.3901
327.49        105.7087
327.94         105.534
328.39        106.0049
328.85        106.9048
329.30        108.0453
329.75        108.8266
330.20        109.0521
330.66        108.8852
331.11        108.5673
331.56        108.4065
332.01        108.5264
332.46        108.7981
332.92        109.1566
333.37        109.6675
333.82        110.2437
334.27        110.9334
334.72        111.6053
335.17        112.0141
335.63        112.1146
336.08        112.0219
336.53        111.9611
336.98        112.3678
337.43        113.3329
337.88        114.6927
338.34        116.1651
338.79        117.3913
339.24        118.1567
339.69        118.5639
340.14        118.6407
340.59        118.4521
341.05        118.1179
341.50         117.653
341.95        117.2409
342.40        117.1615
342.85        117.4827
343.30        118.1334
343.75        119.0225
344.20        119.9648
344.66        120.8595
345.11        121.7231
345.56        122.4304
346.01        122.8089
346.46        122.8587
346.91        122.6344
347.36        122.3402
347.81        122.3208
348.26        122.6415
348.72        123.1844
349.17        123.7936
349.62        124.2488
350.07        124.4691
350.52        124.5502
350.97        124.4337
351.42        124.0283
351.87        123.3776
352.32        122.5256
352.77        121.7456
353.22        121.4387
353.67        121.6603
354.13        122.2882
354.58        123.0207
355.03        123.2994
355.48        122.9709
355.93        122.1857
356.38        121.2472
356.83        120.6236
357.28        120.4076
357.73         120.426
358.18        120.4246
358.63        120.0088
359.08        119.0914
359.53        117.8422
359.98        116.4679
360.43        115.2447
360.88        114.2516
361.33        113.4078
361.78        112.6384
362.23        111.8343
362.68        110.9728
363.13        110.1117
363.58        109.2887
364.03        108.5426
364.48        107.8688
364.93        107.2218
365.38        106.5782
365.83        105.9206
366.28        105.2403
366.73        104.5498
367.18        103.8185
367.63        102.9944
368.08        102.0792
368.53        101.0973
368.98        100.1284
369.43        99.29465
369.88        98.62412
370.33        98.08691
370.78        97.60474
371.23        97.04889
371.68        96.38297
372.13        95.63554
372.58        94.87817
373.03         94.2254
373.48        93.69067
373.93        93.22088
374.38        92.72308
374.83        92.06123
375.28        91.21397
375.72         90.2262
376.17        89.23809
376.62        88.34318
377.07        87.59117
377.52         86.9784
377.97        86.48169
378.42         86.0749
378.87        85.73824
379.32        85.43709
379.77        85.22532
380.22        85.18026
380.67        85.27575
381.11          85.504
381.56        85.57051
382.01        85.09538
382.46         84.0601
382.91         82.6563
383.36        81.29165
383.81        80.52157
384.26        80.42181
384.71        80.79876
385.15        81.36083
385.60        81.59282
386.05        81.33971
386.50         80.7632
386.95        79.99095
387.40        79.22861
387.85         78.5725
388.29        77.91593
388.74        77.39391
389.19        76.99886
389.64        76.71598
390.09        76.54336
390.54        76.41603
390.98        76.19759
391.43        75.89848
391.88        75.54013
392.33        75.18089
392.78         74.8823
393.23         74.6518
393.67        74.50139
394.12        74.44576
394.57        74.18876
395.02        73.79404
395.47        73.66602
395.91        73.76391
396.36        73.63519
396.81        73.28029
397.26        72.95096
397.71        72.68281
398.15        72.40781
398.60        72.21828
399.05        72.02224
399.50        71.82555
399.95         71.7759
400.39        71.82616
400.84        71.58151
401.29        71.08843
401.74        70.84488
402.18        70.80858
402.63        70.38509
403.08        69.70183
403.53        69.36945
403.97        69.42121
404.42        69.55965
404.87        69.67163
405.32        69.67612
405.76        69.52657
406.21        69.30251
406.66        69.04306
407.11        68.83151
407.55         68.7454
408.00        68.65604
408.45        68.59072
408.90        68.86071
409.34        69.25777
409.79        68.99336
410.24        68.22105
410.68        67.83522
411.13        67.89684
411.58        67.89908
412.03        67.78298
412.47        67.70144
412.92        67.61964
413.37        67.52154
413.81        67.41158
414.26        67.36077
414.71         67.3521
415.15        67.39932
415.60        67.44536
416.05        67.46918
416.49        67.46844
416.94        67.44193
417.39        67.42183
417.83        67.43946
418.28        67.50717
418.73        67.61753
419.17        67.73861
419.62        67.81955
420.07        67.83108
420.51        67.76019
420.96        67.67952
421.41        67.58492
421.85        67.45472
422.30        67.53878
422.74        67.67613
423.19        67.30919
423.64        66.59985
424.08        66.57709
424.53        67.18311
424.98        67.45872
425.42        67.34296
425.87        67.44537
426.31        67.73274
426.76        67.64641
427.21        67.28529
427.65        67.21866
428.10        67.40214
428.54        67.48798
428.99        67.51152
429.44        67.32095
429.88        67.09621
430.33        67.71185
430.77        68.76056
431.22        68.96609
431.66        68.32728
432.11        67.67694
432.56        67.30563
433.00        67.34551
433.45        67.90498
433.89        68.54745
434.34        69.16869
434.78        69.81207
435.23        68.96461
435.67         67.2609
436.12        67.48871
436.57        67.65485
437.01        68.38045
437.46        68.71259
437.90        68.64986
438.35        67.91917
438.79        68.28117
439.24        68.28155
439.68        68.38754
440.13        68.75397
440.57        69.32014
441.02        69.37962
441.46        69.03236
441.91        69.64472
442.35        70.77969
442.80        70.64163
443.24        69.48716
443.69        69.45202
444.13        70.45049
444.58        70.82908
445.02        70.53999
445.47        70.49719
445.91        70.75193
446.36        71.00274
446.80         71.2315
447.24        71.50722
447.69        71.77392
448.13        71.92569
448.58        71.96078
449.02        71.88084
449.47        71.75388
449.91        71.66185
450.36        71.65317
450.80        71.68012
451.25        71.74876
451.69          71.807
452.13        71.85363
452.58        71.90083
453.02        71.94542
453.47        71.93533
453.91        71.87825
454.36        71.83097
454.80        71.81017
455.24        71.42817
455.69        71.26662
456.13        70.97562
456.58        70.80257
457.02        70.34595
457.46        70.00415
457.91        70.14629
458.35        70.58474
458.79        70.48428
459.24        69.85564
459.68        69.05112
460.13        68.37138
460.57        68.08989
461.01        68.32353
461.46        68.57472
461.90        69.18973
462.34        69.72864
462.79        69.44292
463.23         69.5084
463.68        69.57689
464.12        69.32928
464.56        68.74505
465.01        67.89457
465.45        67.02585
465.89        66.85751
466.34        67.24953
466.78        67.59476
467.22        67.76723
467.67        67.24502
468.11        66.93488
468.55        66.91853
468.99        67.35295
469.44        67.41474
469.88        67.09186
470.32        66.90156
470.77        66.88279
471.21        66.85163
471.65        66.79586
472.10        66.77019
472.54        66.75647
472.98        66.69038
473.42        66.55186
473.87        66.50466
474.31        66.45423
474.75        66.01413
475.20        65.36272
475.64        65.19876
476.08        65.49121
476.52        65.52721
476.97        65.26219
477.41        65.20098
477.85        65.41705
478.29        65.20612
478.74        65.45528
479.18        65.68501
479.62        65.70454
480.06        65.68987
480.50        65.49872
480.95        65.34231
481.39        65.29367
481.83        64.83471
482.27        64.95863
482.72        65.20209
483.16        65.32126
483.60        65.21877
484.04        65.56077
484.48        65.57045
484.93         65.3399
485.37        65.60347
485.81         64.9861
486.25        64.46882
486.69        65.77503
487.14        66.11698
487.58        64.69322
488.02        65.64478
488.46        63.89212
488.90        64.28564
489.34        65.57479
489.79        66.55242
490.23        65.89352
490.67        65.24121
491.11        64.59608
491.55        64.39783
491.99        64.62064
492.43        64.55056
492.88        64.20094
493.32        64.18021
493.76        64.45957
494.20        64.62675
494.64        64.63568
495.08        64.60222
495.52        64.54514
495.96        64.49843
496.41        64.46511
496.85        64.43308
497.29        64.30535
497.73        64.30223
498.17        63.67596
498.61        63.65645
499.05        63.94736
499.49        64.14132
499.93        63.97461
500.37        63.96397
500.82        64.05727
501.26        64.14159
501.70        64.19969
502.14        64.23662
502.58        64.26389
503.02        64.31113
503.46        64.37756
503.90        64.44575
504.34        64.47646
504.78        64.41007
505.22        64.23038
505.66        63.99625
506.10         63.8032
506.54        63.64191
506.98        63.49429
507.42        63.88622
507.86        63.93955
508.30        63.80226
508.74        64.02615
509.18        63.96227
509.62        63.88564
510.06        63.84938
510.50        63.88108
510.94         63.9389
511.38        63.98621
511.82        63.98819
512.26        63.93759
512.70         63.8593
513.14        63.78581
513.58        63.76572
514.02        63.81072
514.46         63.8968
514.90        64.01224
515.34        64.13808
515.78        64.25864
516.22        64.37796
516.66        64.45816
517.10        64.44014
517.54        64.31723
517.98         64.1074
518.42        63.88194
518.86        63.74046
519.30        63.70694
519.74         63.8038
520.18        63.95872
520.62        63.93798
521.06        63.77227
521.50        63.76001
521.93         63.9053
522.37        63.96293
522.81        63.93539
523.25        63.95375
523.69        64.02941
524.13        64.11938
524.57        64.21431
525.01        64.31358
525.45        64.38124
525.89        64.35918
526.32         64.2324
526.76        64.04379
527.20        63.81491
527.64        63.58697
528.08        63.38591
528.52        63.20826
528.96        63.09186
529.40        63.09184
529.83        63.20486
530.27        63.41429
530.71         63.6438
531.15        63.77706
531.59        63.78243
532.03        63.68489
532.46        63.52587
532.90        63.42065
533.34        63.38878
533.78        63.36727
534.22        63.33217
534.66        63.32539
535.09        63.29344
535.53         63.1062
535.97        62.82029
536.41        62.68425
536.85        62.72289
537.28        62.80949
537.72        62.91473
538.16        63.03995
538.60        63.16295
539.04        63.27882
539.47        63.36145
539.91        63.41462
540.35        63.42332
540.79        63.38822
541.22        63.32505
541.66         63.2797
542.10        63.26027
542.54        63.26844
542.97        63.27135
543.41        63.24627
543.85        63.17397
544.29        63.06118
544.72        62.95011
545.16        62.91727
545.60        62.96001
546.04        63.14652
546.47        63.37767
546.91        63.32165
547.35        63.04898
547.79        62.95583
548.22        63.06783
548.66        63.23478
549.10        63.43314
549.53        63.41433
549.97        63.22736
550.41        63.08073
550.84        63.06065
551.28        63.12102
551.72        63.17355
552.15        63.24041
552.59        63.38866
553.03        62.69273
553.46        63.08448
553.90        62.98923
554.34        62.96604
554.77        62.98965
555.21        63.07552
555.65        63.18201
556.08        63.26617
556.52        63.34217
556.96        63.36042
557.39         63.3204
557.83        63.22001
558.27        62.93118
558.70        62.53605
559.14         62.3817
559.57        62.45533
560.01        62.47754
560.45        62.45124
560.88        62.62867
561.32        62.94833
561.75        63.08005
562.19        63.03392
562.63        62.87917
563.06        62.71365
563.50        62.83044
563.93        63.10293
564.37        63.18272
564.80        63.07547
565.24        62.88336
565.68        62.51953
566.11        63.10242
566.55        62.38539
566.98        62.21039
567.42        62.04623
567.85          62.187
568.29        62.57653
568.72        62.88379
569.16        63.16348
569.60         63.2579
570.03        63.34887
570.47        63.57218
570.90        63.99883
571.34        62.94838
571.77        63.51237
572.21        63.54383
572.64        63.42953
573.08        63.63846
573.51        63.02977
573.95        63.02836
574.38        63.43903
574.82        63.61214
575.25        63.27225
575.69        63.48309
576.12        63.32603
576.56        62.93571
576.99        62.83659
577.42        63.15255
577.86        63.11693
578.29        64.08048
578.73        63.64558
579.16        63.55876
579.60        63.18295
580.03        63.38321
580.47        63.29293
580.90        63.82193
581.33        63.87117
581.77         64.1554
582.20        63.97819
582.64        64.10255
583.07        63.61794
583.51        63.26465
583.94        63.05223
584.37         63.1372
584.81        63.53688
585.24        63.61429
585.68        63.32301
586.11        63.68859
586.54        63.53349
586.98        63.09099
587.41        62.68039
587.85        63.00159
588.28        63.11656
588.71        62.66529
589.15        62.56868
589.58        63.12653
590.01        62.64069
590.45        62.85902
590.88        63.71413
591.31        63.60748
591.75        62.90145
592.18         62.4077
592.61        62.28532
593.05        63.17485
593.48        63.65965
593.91        63.33514
594.35        62.94242
594.78        62.41346
595.21        62.28094
595.65        62.72524
596.08         63.7395
596.51        63.70778
596.94        63.03947
597.38        62.75334
597.81         63.0303
598.24        63.33956
598.68        62.80491
599.11        62.91642
599.54        64.14681
599.97        63.38556
600.41        63.12603
600.84        62.46519
601.27        63.00334
601.70        62.83407
602.14        63.02454
602.57        62.80649
603.00        62.67648
603.43        62.02766
603.87        63.04386
604.30         63.2478
604.73         63.1835
605.16        62.36409
605.60        62.28259
606.03        62.04039
606.46        62.10872
606.89        61.88311
607.32        62.57115
607.76        62.37378
608.19        62.64242
608.62        62.55632
609.05        62.52731
609.48        62.45886
609.92        63.15356
610.35        62.73252
610.78        62.32805
611.21        61.97315
611.64        62.22763
612.07        62.54078
612.50        62.60987
612.94         62.6883
613.37        62.59174
613.80          62.736
614.23        62.00899
614.66         62.0051
615.09        62.35286
615.52        62.52705
615.96         62.4161
616.39        62.44621
616.82         62.5782
617.25        62.03839
617.68        61.80564
618.11        61.97315
618.54        62.65336
618.97         62.7873
619.40        62.35413
619.84        62.29784
620.27        62.09075
620.70        62.19419
621.13        62.36898
621.56        61.80845
621.99        60.97065
622.42         60.9973
622.85        61.68136
623.28        61.29957
623.71        61.57711
624.14        61.42364
624.57        61.98461
625.00        61.64827
625.43        61.89407
625.86        61.77519
626.29        61.71286
626.72        61.47877
627.15        61.56079
627.58        61.55376
628.01         61.5587
628.44        61.54677
628.87        61.51349
629.30         61.4561
629.73        61.40439
630.16        61.44228
630.59        61.55172
631.02        61.65804
631.45         61.7529
631.88        61.80579
632.31        61.78481
632.74        62.00374
633.17        61.83694
633.60         61.7706
634.03        61.62916
634.46        61.43009
634.89        61.21127
635.32        61.06012
635.75        61.00845
636.18        60.96933
636.61        60.94422
637.04        60.97188
637.47        61.04155
637.89         61.1296
638.32        61.20238
638.75        61.26542
639.18        61.28057
639.61        61.31796
640.04        61.12188
640.47        61.08213
640.90        61.12904
641.33        61.20801
641.76        61.26958
642.18        61.27002
642.61        61.18131
643.04        61.02483
643.47        60.87423
643.90        60.84579
644.33        60.95871
644.76        61.17496
645.18        61.40222
645.61        61.47466
646.04        61.36351
646.47        61.12302
646.90        60.84914
647.33        60.69532
647.75        60.68113
648.18        60.79498
648.61        61.00402
649.04        61.08463
649.47        60.93249
649.89        61.39964
650.32        60.88934
650.75        60.85995
651.18        60.88542
651.61        60.90083
652.03        60.92377
652.46        61.15377
652.89        61.48613
653.32        61.40233
653.74        61.09391
654.17        60.80639
654.60        61.32188
655.03        61.45694
655.46        60.70465
655.88        60.61403
656.31        63.29617
656.74        65.51834
657.16        63.68752
657.59        62.91797
658.02        61.56818
658.45        61.75425
658.87        61.36347
659.30        61.29162
659.73        61.39494
660.15        62.10721
660.58        61.02161
661.01        60.78478
661.44        60.75064
661.86        60.60765
662.29        60.31428
662.72        60.80172
663.14        60.83585
663.57        60.83986
664.00        60.57048
664.42        60.59844
664.85        60.94301
665.27        61.28968
665.70        61.49604
666.13        61.54018
666.55        61.39975
666.98        61.01867
667.41        60.50523
667.83        60.43187
668.26        60.22071
668.69         60.3312
669.11         60.5103
669.54        60.64589
669.96        60.70205
670.39        60.71192
670.82        60.71262
671.24        60.73347
671.67        60.78315
672.09        60.83043
672.52        60.87646
672.94        60.89186
673.37        60.87696
673.80        60.83314
674.22        60.78734
674.65        60.74804
675.07        60.73732
675.50        60.74343
675.92        60.74276
676.35        60.68544
676.77         60.5682
677.20         60.4061
677.62        60.25769
678.05        60.21246
678.47        60.28616
678.90        60.45871
679.32        60.65203
679.75        60.75316
680.17        60.72909
680.60        60.61235
681.02        60.48327
681.45        60.45518
681.87        60.56223
682.30        60.78971
682.72        61.05757
683.15        61.11154
683.57         60.9683
684.00        60.86278
684.42        60.84687
684.85          60.834
685.27        60.83349
685.70        60.93066
686.12        61.06875
686.54        61.12635
686.97        61.08028
687.39        60.97427
687.82        60.84737
688.24        60.77896
688.66        60.78625
689.09        60.84035
689.51        60.91691
689.94        60.95066
690.36        60.93245
690.78        60.86937
691.21        60.80222
691.63        60.78669
692.06        60.83936
692.48        60.95279
692.90        61.06642
693.33        61.08948
693.75        61.00307
694.17        60.80614
694.60        60.60857
695.02        60.59924
695.44        60.78439
695.87          61.106
696.29        61.42883
696.71        61.36347
697.14        60.97287
697.56        60.74988
697.98        60.78016
698.41        60.80678
698.83        60.83533
699.25        61.09455
699.68        61.44744
700.10        61.59772
700.52        61.47335
700.94        61.17348
701.37        60.84672
701.79        60.73819
702.21        60.89693
702.64        61.22737
703.06         61.5978
703.48        61.78093
703.90        61.71275
704.33         61.4677
704.75        61.14251
705.17        60.88018
705.59        60.73927
706.01         60.6844
706.44        60.68882
706.86          60.732
707.28        60.78973
707.70        60.85827
708.12        60.95959
708.55        61.13905
708.97        61.37401
709.39         61.5653
709.81         61.6651
710.23        61.68674
710.66        61.61848
711.08        61.44881
711.50        61.21718
711.92        61.02861
712.34        60.91197
712.76        60.84629
713.19        60.81591
713.61        60.82406
714.03        60.85245
714.45        60.92008
714.87        61.01199
715.29        61.10231
715.71        61.17967
716.13        61.22342
716.56        61.25301
716.98        61.39328
717.40        61.62154
717.82        61.91113
718.24        62.13811
718.66        62.10328
719.08        61.79255
719.50        61.29758
719.92        60.80001
720.34         60.5774
720.76        60.69183
721.19        61.03222
721.61        61.50923
722.03        61.92199
722.45        62.18157
722.87        62.33463
723.29        62.35256
723.71        62.19489
724.13        61.88585
724.55        61.44609
724.97        60.99293
725.39        60.73059
725.81        60.71193
726.23        60.86971
726.65        61.11898
727.07        61.44546
727.49        61.57667
727.91        61.72316
728.33        61.83304
728.75        61.93988
729.17        62.04675
729.59        62.12346
730.01        62.16698
730.43         62.1816
730.85        62.16692
731.27        62.12941
731.69        62.06351
732.10        61.95338
732.52        61.80421
732.94        61.64328
733.36        61.51881
733.78        61.38928
734.20        61.25484
734.62        61.34159
735.04        61.70485
735.46        61.28115
735.88        61.87608
736.30        62.01423
736.72        62.21188
737.13        62.37628
737.55        62.45013
737.97        62.55984
738.39        62.64224
738.81        62.39139
739.23        61.93369
739.65        61.91607
740.06        62.27642
740.48        62.44458
740.90        62.37386
741.32        62.41049
741.74        62.56487
742.16        62.67051
742.57        62.71911
742.99         62.7392
743.41          62.726
743.83         62.6571
744.25        62.53842
744.67        62.37012
745.08        62.22172
745.50        62.18244
745.92        62.27823
746.34        62.48029
746.75        62.70417
747.17        62.79848
747.59        62.73402
748.01        62.55368
748.42        62.34372
748.84        62.24393
749.26        62.28666
749.68        62.42307
750.09        62.58295
750.51        62.65157
750.93        62.60219
751.35        62.50273
751.76        62.36794
752.18        62.21128
752.60        62.04591
753.01        61.88839
753.43        61.75509
753.85        61.69708
754.27        61.72978
754.68        61.85422
755.10        62.02537
755.52        62.16157
755.93         62.2284
756.35        62.23548
756.77         62.2678
757.18        62.31177
757.60        62.35471
758.02        62.70045
758.43        63.25722
758.85        62.54948
759.26        62.46981
759.68        62.19376
760.10        62.26878
760.51        62.36063
760.93        62.48721
761.34        62.17725
761.76        62.59711
762.18        62.66933
762.59        62.76601
763.01         62.8791
763.42        63.04996
763.84        63.10221
764.26        63.02599
764.67        62.96349
765.09        62.91399
765.50        62.56884
765.92        62.07895
766.33        61.89523
766.75         61.9892
767.16        62.07613
767.58        62.09903
768.00        62.23015
768.41        62.46032
768.83        62.76892
769.24        63.04139
769.66        62.94933
770.07         62.5675
770.49        62.32456
770.90        62.30238
771.32        62.43102
771.73        62.65451
772.15        62.77049
772.56         62.7686
772.97        62.73212
773.39        62.70727
773.80        62.76799
774.22        62.89107
774.63        63.03838
775.05        63.12192
775.46        63.13637
775.88        63.04289
776.29        62.85384
776.70        62.65284
777.12        62.60923
777.53        62.76452
777.95        63.03705
778.36         63.3355
778.77         63.4671
779.19        63.39841
779.60        63.20605
780.02        62.95418
780.43         62.7984
780.84        62.79615
781.26         62.7024
781.67        62.59045
782.09        62.98792
782.50        63.68705
782.91        63.69001
783.33        63.06229
783.74        62.82766
784.15        63.03809
784.57        63.09636
784.98        63.02875
785.39        63.14112
785.81        63.43113
786.22        63.81056
786.63        64.17122
787.04        64.34006
787.46        64.29344
787.87        64.07173
788.28        63.78947
788.70        63.59994
789.11        63.53117
789.52        63.57679
789.93        63.67646
790.35        63.71688
790.76        63.66806
791.17        63.54977
791.58        63.44894
792.00        63.37847
792.41        63.34954
792.82        63.65683
793.23        64.13106
793.65        63.70807
794.06          62.734
794.47        63.04943
794.88        64.37093
795.29        64.80619
795.71        64.24163
796.12        63.77532
796.53        63.59015
796.94        63.43255
797.35        63.40672
797.76        63.76313
798.18        64.32143
798.59        64.63255
799.00        64.59138
799.41        64.38405
799.82        64.11522
800.23        63.91299
800.64        63.82951
801.06        63.78673
801.47        63.79369
801.88        63.78804
802.29        63.74794
802.70        63.70379
803.11        63.64912
803.52         63.5619
803.93        63.46264
804.34        63.36437
804.75         63.3135
805.17        63.44288
805.58        63.80695
805.99        64.13264
806.40        64.39011
806.81        65.03006
807.22        65.77394
807.63        65.49678
808.04        64.40993
808.45         63.8671
808.86        64.00584
809.27        64.12921
809.68        64.11818
810.09        64.09711
810.50        64.03275
810.91        63.90044
811.32        63.81262
811.73        63.94094
812.14        64.30574
812.55        64.84634
812.96        65.38155
813.37        65.57528
813.78           65.34
814.19        64.80741
814.60         64.1665
815.01        63.66927
815.42        63.38219
815.83         63.2329
816.24         63.2064
816.65        63.26951
817.05        63.40174
817.46        63.60419
817.87        63.82522
818.28        63.93136
818.69        63.89883
819.10        63.73137
819.51        63.55551
819.92          63.613
820.33        63.95063
820.74        64.48728
821.14         65.0291
821.55        65.26256
821.96        65.11891
822.37        64.69574
822.78        64.17278
823.19        63.85634
823.60        63.84486
824.00        64.07334
824.41        64.38051
824.82        64.58518
825.23        64.60954
825.64        64.51644
826.04        64.37138
826.45        64.23679
826.86        64.15633
827.27         64.1115
827.68        64.07258
828.08        64.02368
828.49        63.91447
828.90        63.77415
829.31        63.68041
829.72        63.75427
830.12        64.03143
830.53        64.41763
830.94        64.76911
831.35         64.7999
831.75        64.46454
832.16        63.84171
832.57        63.15143
832.97        62.72226
833.38         62.6467
833.79        62.81167
834.20        63.12601
834.60        63.43686
835.01          63.688
835.42        63.97216
835.82         64.2394
836.23        64.32735
836.64        64.24161
837.04        63.96756
837.45        63.74102
837.86        64.01855
838.26        64.88849
838.67        66.18468
839.08        67.44013
839.48        67.77782
839.89        66.99702
840.29        65.43057
840.70        63.77676
841.11        62.86223
841.51        62.88863
841.92        63.58728
842.33        64.65054
842.73        65.51587
843.14         65.8606
843.54        65.90109
843.95        65.75512
844.35        65.66298
844.76        65.68538
845.17        65.71638
845.57        65.71603
845.98        65.61983
846.38        65.43657
846.79        65.21177
847.19        64.99088
847.60        64.80631
848.00        64.67839
848.41        64.56085
848.81        64.47752
849.22        64.39194
849.62        64.33286
850.03        64.31317
850.43        64.29225
850.84        64.13734
851.24        63.87553
851.65        63.47654
852.05        63.18989
852.46         63.3476
852.86        63.98469
853.27        64.94695
853.67        65.83074
854.07        66.19285
854.48        65.93533
854.88        65.21979
855.29        64.26088
855.69        63.58392
856.10         63.3161
856.50        63.39478
856.90        63.64425
857.31        63.77711
857.71         63.7466
858.12        63.59159
858.52        63.43388
858.92        63.35444
859.33        63.36806
859.73        63.46811
860.13        63.54893
860.54        63.47918
860.94        63.26929
861.34        62.94402
861.75        62.62845
862.15        62.56146
862.55        62.76956
862.96        63.15329
863.36        63.58068
863.76        63.74636
864.17        63.56681
864.57        63.18284
864.97        62.69554
865.38        62.27168
865.78        62.00386
866.18        61.82843
866.58        61.81031
866.99        62.05289
867.39        62.55933
867.79        63.28399
868.19        64.02496
868.60         64.4549
869.00        64.52834
869.40        64.27738
869.80        63.88643
870.21        63.73123
870.61        63.97007
871.01        64.43436
871.41        64.85205
871.81        64.83359
872.22         64.3095
872.62        63.41414
873.02        62.42547
873.42        61.80906
873.82        61.71642
874.22        62.02063
874.63          62.475
875.03         62.7038
875.43        62.58624
875.83        62.23317
876.23        61.84671
876.63        61.73605
877.03        61.97048
877.44        62.41621
877.84        62.87193
878.24        63.03588
878.64        62.78743
879.04        62.09235
879.44        61.28517
879.84        60.98169
880.24        61.26359
880.64        61.90955
881.04        62.54212
881.44        62.56904
881.84        61.87165
882.24        60.67959
882.65        59.44042
883.05        58.83915
883.45        59.04668
883.85        59.84418
884.25        60.91346
884.65        61.70711
885.05        62.03383
885.45        62.06173
885.85        61.92482
886.25        61.83074
886.65        61.85596
887.05        61.90364
887.45        61.98194
887.85        62.12904
888.25        62.33065
888.65        62.59454
889.04        62.82766
889.44        62.89669
889.84        62.76622
890.24        62.47201
890.64        62.11979
891.04        61.89504
891.44        61.85148
891.84        61.94625
892.24        62.08777
892.64         62.1273
893.04        62.04285
893.44        61.90032
893.83        61.80432
894.23        61.87003
894.63        62.13871
895.03        62.53024
895.43        62.97557
895.83        63.37543
896.23        63.66431
896.63        63.84478
897.02        63.85386
897.42         63.6237
897.82        63.17283
898.22        62.57642
898.62        61.94024
899.01        61.41005
899.41        61.05605
899.81        60.83539
900.21        60.78598
900.61        60.95714
901.00        61.31653
901.40        61.82239
901.80        62.30816
902.20        62.50202
902.59        62.36274
902.99         61.9761
903.39        61.49121
903.79        61.16454
904.18        61.07131
904.58        61.12305
904.98         61.3339
905.38        61.73294
905.77        62.28191
906.17        62.98958
906.57        63.60827
906.96        63.72244
907.36        63.24718
907.76        62.31536
908.15        61.33342
908.55        60.93601
908.95        61.28072
909.34        62.20144
909.74        63.27999
910.14        63.88947
910.53        63.82187
910.93        63.29315
911.33        62.56258
911.72         62.0167
912.12         61.8362
912.52        61.89565
912.91        62.07153
913.31        62.20944
913.70        62.26153
914.10        62.24536
914.49        62.32045
914.89        62.66015
915.29         63.2905
915.68        64.13307
916.08        64.83157
916.47        64.87566
916.87        64.20393
917.26        63.00556
917.66         61.7693
918.05        61.07772
918.45        61.07088
918.84        61.61665
919.24        62.40423
919.64        63.00313
920.03        63.25534
920.42        63.23909
920.82        63.14459
921.21        63.21931
921.61        63.50452
922.00        63.93038
922.40        64.27672
922.79        64.32487
923.19        64.00344
923.58        63.45089
923.98        62.88538
924.37         62.5476
924.77        62.51684
925.16         62.6867
925.55        62.97742
925.95        63.22882
926.34        63.38012
926.74        63.44296
927.13         63.3871
927.52        63.10372
927.92        62.64552
928.31         62.0485
928.70        61.45205
929.10        61.04185
929.49        60.85687
929.89        60.80641
930.28        60.95936
930.67        61.31655
931.07        61.80966
931.46        62.49091
931.85        63.07356
932.24        63.13549
932.64        62.65895
933.03        61.75675
933.42        60.87231
933.82        60.65608
934.21        61.23654
934.60         62.4474
934.99          63.894
935.39        64.85385
935.78        65.11654
936.17        64.78635
936.56        64.14423
936.96        63.63164
937.35        63.38942
937.74        63.31124
938.13        63.18716
938.53        62.72689
938.92          61.914
939.31        60.90989
939.70        60.03666
940.09        59.72306
940.49         60.0117
940.88        60.78966
941.27        61.75446
941.66        62.34886
942.05        62.39422
942.44        62.05926
942.84        61.59078
943.23        61.37516
943.62        61.53887
944.01         61.9345
944.40        62.46405
944.79        62.99732
945.18        63.43123
945.57        63.75339
945.97        63.87297
946.36        63.73438
946.75        63.30263
947.14         62.6857
947.53        61.88425
947.92        60.87247
948.31        59.72885
948.70        58.51289
949.09         57.5831
949.48        57.53664
949.87        58.48262
950.26        60.21434
950.65        62.21987
951.04        63.63316
951.43        64.15573
951.82        63.96496
952.21        63.32433
952.60        62.71629
952.99        62.33795
953.38        62.08009
953.77        61.88985
954.16        61.69413
954.55        61.46235
954.94        61.23302
955.33        61.10995
955.72        61.22046
956.11        61.56954
956.50        62.11962
956.89        62.55633
957.28        62.37578
957.66        61.49878
958.05        60.13786
958.44        58.79157
958.83         58.1802
959.22        58.42516
959.61        59.31644
960.00        60.41848
960.39        60.91191
960.78        60.55316
961.16        59.62856
961.55        58.55466
961.94        57.85709
962.33        57.69064
962.72        57.89702
963.11        58.37741
963.49        58.96766
963.88        59.48191
964.27        59.96141
964.66        60.40627
965.04          60.859
965.43        61.26786
965.82        61.60851
966.21        61.72239
966.60        61.37173
966.98         60.5422
967.37         59.4461
967.76        58.38612
968.15        57.69791
968.53        57.45962
968.92        57.60444
969.31        58.00901
969.69        58.41259
970.08        58.63148
970.47         58.7149
970.86        58.81782
971.24        59.20108
971.63        59.89935
972.02        60.80676
972.40        61.64093
972.79        61.65498
973.17        60.77217
973.56        59.32377
973.95        57.80976
974.33        56.82948
974.72         56.5221
975.11        56.69482
975.49        57.27006
975.88        58.01302
976.26        58.80271
976.65        59.62868
977.04        60.30471
977.42        60.52742
977.81        60.22428
978.19        59.43671
978.58        58.54735
978.96        58.16639
979.35        58.42416
979.74        59.19051
980.12        60.16723
980.51        60.57798
980.89         60.3321
981.28        59.65422
981.66         58.9102
982.05        58.57384
982.43        58.78328
982.82        59.36975
983.20        60.28046
983.59         61.3259
983.97        62.43635
984.35         63.6011
984.74        64.56658
985.12        65.15443
985.51        65.24334
985.89        64.88697
986.28        64.32714
986.66        63.87853
987.04        63.68885
987.43        63.63926
987.81        63.66297
988.20        63.52171
988.58        63.17273
988.96        62.65221
989.35         62.0269
989.73        61.34597
990.12        60.63242
990.50        59.95604
990.88        59.24916
991.27        58.45076
991.65        57.63398
992.03        56.84271
992.42        56.43283
992.80        56.88515
993.18        58.25274
993.56        60.40297
993.95        62.67014
994.33         63.9207
994.71        63.67122
995.10        62.35664
995.48         60.6671
995.86        59.72765
996.24        59.82935
996.63        60.52754
997.01         61.7329
997.39        62.88577
997.77        63.63768
998.15        64.23131
998.54        64.37867
998.92        63.51733
999.30        61.78054
999.68        59.38493
1000.06        57.19847
1000.45        56.44592
1000.83         57.4521
1001.21        59.99177
1001.59        63.32769
1001.97        65.57069
1002.35        65.92696
1002.73        64.94441
1003.12        63.55023
1003.50        62.87418
1003.88         63.3116
1004.26        64.37514
1004.64        65.86843
1005.02        67.36288
1005.40        68.50403
1005.78        69.52139
1006.16        69.92557
1006.54        68.90974
1006.92        66.58929
1007.30        63.36643
1007.69        60.37334
1008.07         59.0446
1008.45          59.806
1008.83         62.2678
1009.21        65.74411
1009.59         68.3787
1009.97        69.09634
1010.35        68.37512
1010.73        66.41963
1011.11        63.60456
1011.49        60.44177
1011.86        57.05782
1012.24        54.22222
1012.62        52.92921
1013.00        53.29003
1013.38        55.11653
1013.76        57.95703
1014.14        60.40147
1014.52        61.62685
1014.90        61.88772
1015.28        61.42165
1015.66        60.72331
1016.04        60.04617
1016.41         59.1992
1016.79        58.49603
1017.17        58.64468
1017.55         59.6865
1017.93        61.31638
1018.31        63.03149
1018.69        64.07531
1019.06        64.30332
1019.44        64.01274
1019.82        63.01831
1020.20        61.17736
1020.58        58.81062
1020.95        56.03744
1021.33        54.08254
1021.71        54.23665
1022.09        56.61562
1022.46        61.33303
1022.84        66.88181
1023.22        69.22927
1023.60        66.85211
1023.97        60.91902
1024.35        54.96486
1024.73        53.12445
