SpectraSmart Spectrum 2.9.0.0
--------- Device Information -----------
Spectrum Name :  反射率_0
Saving Time :  2024/04/27 00:35:51
Spectro-Module Model Name : SE2030-DUVN
Spectro-Module Serial Number : OS361AC55029948
Wavelength Start : 200
Wavelength End : 1025
Wavelength Unit : Wavelength(nm)
Spectrum Unit : Reflectance(%)
-----------Spectrum Setting ------------
Integration Time : 20ms
Average : 10
Boxcar : 0
Background removal :  enabled
linearity correction :  enabled
SC :  disabled
Intensity correction :  disabled
DWT denoise :  enabled
savitzky-golay :  disabled
FFT :  disabled
Running average :  disabled
Kalman :  disabled
High pass :  disabled
---------------BEGIN--------------------
Wavelength(nm)             Reflectance(%)
200.29               0
200.75        55.13385
201.21        50.47382
201.67        46.54591
202.13         45.2546
202.58        46.63104
203.04        50.83223
203.50        57.45742
203.96        63.55582
204.42        66.69254
204.88        66.85174
205.34         64.9437
205.80         63.7872
206.26        64.21763
206.72        64.84505
207.18        65.18607
207.64        64.89919
208.10        63.84568
208.55        62.54945
209.01        59.97236
209.47        56.15839
209.93        53.04494
210.39         51.4902
210.85        51.19647
211.31        51.79861
211.77        53.46265
212.23        57.59016
212.69        69.46967
213.14        96.95406
213.60         107.437
214.06        97.74136
214.52        88.04433
214.98           82.84
215.44        79.82481
215.90        76.45586
216.36        73.75948
216.81        73.70876
217.27        77.20207
217.73        86.06152
218.19        97.39362
218.65        96.83225
219.11        82.65821
219.57          66.068
220.02        56.25672
220.48        57.35765
220.94        68.48416
221.40         90.9951
221.86        124.7842
222.32        149.3507
222.77        145.0056
223.23        124.4445
223.69        102.4819
224.15        87.91624
224.61        79.87289
225.06        74.51604
225.52        71.52834
225.98        70.34026
226.44        70.43122
226.90        72.04816
227.36        73.84827
227.81         73.4492
228.27        70.83103
228.73        66.73315
229.19        63.27979
229.65        62.98233
230.10        65.76736
230.56        70.70064
231.02        75.53912
231.48        76.72437
231.93        73.79208
232.39        68.73229
232.85        63.69585
233.31        61.44361
233.77        62.25987
234.22        65.02566
234.68        68.65119
235.14        71.55872
235.60        73.16321
236.05        74.13177
236.51         74.2395
236.97         73.1504
237.43         71.0266
237.88        67.94633
238.34        65.07837
238.80        64.77956
239.26        67.92238
239.71        75.08307
240.17        85.46806
240.63        95.68037
241.08        102.9987
241.54         106.459
242.00        107.2746
242.46        109.4303
242.91        116.0239
243.37        126.8138
243.83        142.5777
244.28        157.7314
244.74        161.2875
245.20        152.5071
245.66        139.9821
246.11        131.3997
246.57        127.6235
247.03        126.4169
247.48        123.1783
247.94        112.4333
248.40        97.98598
248.85        84.58782
249.31        75.43482
249.77        71.19931
250.22        70.71688
250.68        73.19172
251.14        78.00317
251.59        82.15005
252.05        83.65726
252.51        83.81153
252.96        82.76014
253.42        81.42977
253.88        80.12385
254.33        78.23087
254.79        77.84513
255.25        80.45277
255.70        85.53345
256.16         92.4071
256.62        97.92828
257.07        97.43147
257.53        92.59293
257.99        86.41273
258.44        81.16377
258.90         79.1189
259.35        79.11514
259.81        80.46227
260.27        81.83747
260.72        81.75743
261.18        80.48596
261.63        78.33615
262.09        76.47186
262.55        75.46562
263.00        75.12284
263.46        75.27713
263.91        75.11867
264.37        74.07977
264.83        72.13756
265.28        69.64734
265.74        67.36415
266.19        65.80457
266.65        65.11414
267.11        64.92423
267.56        64.92893
268.02        64.67107
268.47        63.99908
268.93        63.12718
269.38        62.05651
269.84        60.86005
270.30        59.58039
270.75         58.1672
271.21        56.86628
271.66        55.98472
272.12        55.55742
272.57        55.45171
273.03         55.3434
273.48        54.68122
273.94        53.43714
274.39        51.77473
274.85        50.09943
275.31        48.78694
275.76        47.89156
276.22        47.32995
276.67        46.89145
277.13        46.41523
277.58        45.77288
278.04        45.05384
278.49        44.26595
278.95         43.5648
279.40        42.90769
279.86        42.33708
280.31        41.67882
280.77        40.83948
281.22         39.7835
281.68        38.66484
282.13        37.63832
282.59         37.0202
283.04        36.80054
283.50        36.91199
283.95        37.13128
284.41         37.1293
284.86        36.81904
285.32        36.32466
285.77        35.82424
286.22        35.65222
286.68        35.84755
287.13        36.24277
287.59        36.63337
288.04        36.65433
288.50        36.27717
288.95        35.61612
289.41        34.90451
289.86        34.39112
290.32         34.1899
290.77        34.20053
291.22        34.36252
291.68         34.5643
292.13         34.7676
292.59        35.05347
293.04        35.45911
293.50        36.05698
293.95        36.84717
294.40        37.78831
294.86         38.8608
295.31        40.02983
295.77        41.28352
296.22        42.61698
296.68        44.00006
297.13        45.36336
297.58        46.71857
298.04         48.0943
298.49        49.56223
298.95        51.26017
299.40        53.18668
299.85        55.28423
300.31        57.46441
300.76        59.56461
301.21        61.54892
301.67        63.48104
302.12        65.35034
302.58        67.24319
303.03        69.13805
303.48        71.04514
303.94        73.01784
304.39        75.06111
304.84        77.20502
305.30        79.45548
305.75        81.71964
306.20        83.94958
306.66        86.13815
307.11        88.24997
307.57        90.30865
308.02        92.23243
308.47        94.04149
308.93        95.74639
309.38        97.38232
309.83        99.14142
310.29        101.0542
310.74        103.0645
311.19          104.99
311.65        106.4965
312.10        107.4932
312.55        108.0789
313.00        108.5289
313.46        109.2785
313.91        110.4008
314.36        111.8039
314.82        113.2351
315.27        114.2964
315.72         114.862
316.18        115.0923
316.63        115.1799
317.08          115.48
317.53        116.0904
317.99         116.889
318.44        117.7426
318.89        118.4041
319.35        118.7935
319.80         118.993
320.25        119.1109
320.70        119.3169
321.16        119.6561
321.61        120.1208
322.06        120.5942
322.51        120.9028
322.97         120.994
323.42        120.9282
323.87        120.8944
324.32          121.22
324.78        121.9225
325.23        122.9899
325.68        124.0389
326.13        124.4435
326.59        124.0643
327.04        123.1289
327.49        122.1022
327.94        121.7551
328.39        122.2741
328.85        123.3909
329.30        124.8299
329.75        125.7922
330.20        126.0123
330.66        125.6925
331.11        125.1848
331.56        124.9655
332.01        125.1982
332.46        125.6992
332.92        126.2663
333.37        126.7625
333.82        127.0438
334.27        127.2375
334.72        127.3791
335.17        127.4882
335.63         127.597
336.08        127.7641
336.53        128.0802
336.98        128.7587
337.43        129.8188
337.88        131.1473
338.34        132.5616
338.79        133.8918
339.24        134.9544
339.69        135.7774
340.14        136.2408
340.59        136.1887
341.05        135.6949
341.50         134.849
341.95         133.995
342.40         133.649
342.85        133.9426
343.30        134.7488
343.75        135.8463
344.20        136.8364
344.66        137.5643
345.11        138.1063
345.56        138.4882
346.01        138.7696
346.46        138.9928
346.91        139.1373
347.36        139.2127
347.81        139.2664
348.26        139.3136
348.72        139.3414
349.17        139.4161
349.62        139.6743
350.07        140.1075
350.52        140.6805
350.97        141.1223
351.42        141.0015
351.87        140.2634
352.32        139.0648
352.77        137.8101
353.22        137.0858
353.67        137.0133
354.13        137.4233
354.58        137.9832
355.03        138.0886
355.48        137.5739
355.93        136.6066
356.38        135.5435
356.83        134.9185
357.28        134.8171
357.73        135.0321
358.18        135.1767
358.63         134.649
359.08        133.3342
359.53        131.4818
359.98        129.4782
360.43        127.8686
360.88        126.7878
361.33        126.0698
361.78        125.5062
362.23        124.7716
362.68        123.7781
363.13        122.6498
363.58        121.4954
364.03        120.4602
364.48        119.5727
364.93        118.7486
365.38        117.9327
365.83        117.0666
366.28         116.134
366.73        115.1728
367.18        114.1869
367.63        113.1675
368.08        112.1237
368.53        111.0625
368.98         110.025
369.43        109.0723
369.88        108.2181
370.33        107.4503
370.78        106.7276
371.23        105.9865
371.68        105.2089
372.13        104.4026
372.58        103.6112
373.03        102.9022
373.48        102.2754
373.93        101.6963
374.38        101.0796
374.83        100.3034
375.28        99.35012
375.72        98.24682
376.17        97.15125
376.62         96.1768
377.07        95.37128
377.52        94.73045
377.97        94.18291
378.42        93.62571
378.87        93.03617
379.32        92.41103
379.77        91.88948
380.22        91.67181
380.67        91.74994
381.11        92.07944
381.56        92.28182
382.01        91.83492
382.46        90.68853
382.91        89.09677
383.36        87.53197
383.81         86.6382
384.26        86.51223
384.71        86.91781
385.15        87.56335
385.60        87.93478
386.05        87.85316
386.50         87.4685
386.95        86.83154
387.40        86.03342
387.85        85.16272
388.29        84.15673
388.74        83.25507
389.19        82.57632
389.64        82.13504
390.09        81.89481
390.54        81.74148
390.98         81.4741
391.43        81.08666
391.88        80.57784
392.33        80.06122
392.78        79.74106
393.23        79.56669
393.67        79.36957
394.12        79.20522
394.57        78.65292
395.02        78.37339
395.47        78.21504
395.91        78.31912
396.36         78.2565
396.81        78.02074
397.26        77.84544
397.71        77.70223
398.15        77.43468
398.60         77.1358
399.05        76.74957
399.50        76.33287
399.95        76.12505
400.39        76.09789
400.84        75.76599
401.29        75.19302
401.74        75.03629
402.18        75.19487
402.63        74.77962
403.08        73.93861
403.53        73.56937
403.97        73.70975
404.42        73.88879
404.87         73.9927
405.32        73.97692
405.76        73.77791
406.21        73.59002
406.66        73.41949
407.11        72.96207
407.55        72.43229
408.00        72.51073
408.45         73.0866
408.90        73.37743
409.34         73.1669
409.79        72.51801
410.24        71.68513
410.68        71.22243
411.13        71.21442
411.58        71.34178
412.03        71.46536
412.47        71.49944
412.92        71.36418
413.37        71.11584
413.81         70.8478
414.26        70.76817
414.71        70.88591
415.15        71.16187
415.60        71.47395
416.05        71.69541
416.49        71.78015
416.94        71.75539
417.39         71.6843
417.83        71.64782
418.28        71.67791
418.73        71.74999
419.17        71.83444
419.62        71.88927
420.07        71.89281
420.51        71.83659
420.96        71.78592
421.41        71.75252
421.85        71.71198
422.30        71.80492
422.74        71.88817
423.19         71.6756
423.64        71.21844
424.08              71
424.53        71.05647
424.98        71.10327
425.42        71.14537
425.87        71.40386
426.31         71.7753
426.76        71.80645
427.21        71.54707
427.65        71.41814
428.10        71.42486
428.54        71.45413
428.99        71.55291
429.44        71.38783
429.88         71.1964
430.33        72.00599
430.77         73.3493
431.22        73.94666
431.66        73.62541
432.11        72.71134
432.56        71.61346
433.00        71.25331
433.45        71.88245
433.89        72.82496
434.34        73.18629
434.78        74.70615
435.23        72.86002
435.67        71.35007
436.12        71.72884
436.57        72.00975
437.01         72.6898
437.46        72.90208
437.90        72.64903
438.35        72.25307
438.79        72.30727
439.24        72.34368
439.68        72.47159
440.13        72.85874
440.57        73.44833
441.02        73.50944
441.46        73.13438
441.91        73.83175
442.35        75.08553
442.80        74.68077
443.24        73.02952
443.69        73.04391
444.13        74.56564
444.58        75.16312
445.02        74.74873
445.47        74.68092
445.91        75.00719
446.36        75.21216
446.80        75.27734
447.24        75.35111
447.69        75.43726
448.13        75.46895
448.58        75.48892
449.02        75.58555
449.47        75.71964
449.91        75.69453
450.36        75.52327
450.80        75.28893
451.25        75.09493
451.69        74.98481
452.13          75.008
452.58        75.18193
453.02        75.41534
453.47        75.52793
453.91        75.46584
454.36        75.29668
454.80         75.0741
455.24        74.79986
455.69        74.50326
456.13        74.35938
456.58        74.35989
457.02        73.84748
457.46        73.11191
457.91        73.37931
458.35        74.30177
458.79           74.39
459.24        73.64252
459.68        72.68935
460.13        71.86092
460.57        71.74117
461.01        71.82948
461.46        71.92812
461.90        72.81588
462.34         73.1589
462.79        73.16915
463.23        73.35963
463.68        73.58585
464.12        73.49209
464.56        73.00353
465.01        72.03979
465.45        70.92043
465.89        70.66893
466.34        71.11939
466.78        71.40733
467.22        71.42821
467.67        70.73688
468.11        70.52045
468.55        70.47861
468.99        70.83326
469.44        70.81135
469.88        70.40302
470.32        70.10052
470.77        69.96413
471.21        69.86258
471.65        69.79279
472.10        69.79673
472.54        69.84699
472.98        69.84901
473.42        69.77412
473.87        69.81861
474.31        69.86432
474.75        69.42885
475.20         68.7472
475.64        68.55197
476.08        69.35827
476.52         69.3709
476.97        68.63129
477.41         68.8644
477.85        68.85258
478.29        68.15128
478.74        68.65725
479.18        69.16708
479.62         69.0723
480.06        69.18191
480.50        69.08226
480.95        69.10824
481.39        69.30462
481.83        68.53374
482.27        68.52402
482.72        68.95745
483.16        68.50502
483.60        68.47945
484.04        68.58814
484.48        68.76856
484.93        68.87006
485.37        68.97262
485.81        68.09217
486.25        68.32021
486.69        71.34914
487.14        71.99628
487.58        68.85179
488.02        69.29753
488.46        68.08672
488.90        67.28182
489.34         68.9568
489.79        69.19767
490.23        68.98827
490.67        68.37662
491.11        67.71874
491.55         67.4833
491.99        67.63686
492.43        67.55263
492.88        67.23791
493.32        67.26018
493.76        67.59151
494.20        67.80711
494.64        67.83991
495.08         67.9131
495.52        68.00142
495.96        67.76305
496.41        67.31511
496.85        67.39668
497.29        67.76947
497.73        67.73676
498.17         66.5771
498.61        66.40006
499.05        66.95228
499.49         67.3564
499.93        67.23874
500.37        67.23631
500.82        67.31138
501.26        67.06684
501.70        67.07086
502.14        67.13042
502.58        67.35739
503.02        67.47028
503.46        67.45287
503.90        67.47594
504.34        67.49743
504.78        67.39165
505.22        67.15988
505.66        66.80592
506.10        66.45679
506.54        66.36472
506.98         66.4928
507.42        66.63937
507.86        66.78597
508.30        66.50474
508.74         66.7898
509.18        66.69521
509.62        66.54937
510.06        66.44772
510.50        66.41547
510.94         66.4036
511.38        66.39417
511.82        66.38851
512.26        66.38218
512.70        66.39042
513.14        66.40991
513.58        66.42788
514.02        66.44311
514.46        66.45152
514.90        66.47249
515.34        66.54049
515.78        66.65282
516.22        66.79018
516.66        66.90468
517.10        66.92155
517.54        66.82792
517.98        66.65429
518.42        66.44592
518.86        66.27564
519.30        66.17035
519.74        66.11288
520.18        66.09972
520.62        66.12009
521.06        66.16738
521.50        66.25241
521.93        66.35449
522.37        66.41625
522.81        66.43322
523.25        66.40488
523.69        66.37312
524.13        66.41113
524.57        66.52364
525.01        66.67881
525.45        66.80813
525.89        66.80141
526.32        66.63351
526.76        66.37084
527.20        66.07392
527.64        65.84123
528.08         65.7079
528.52        65.64545
528.96        65.65396
529.40         65.7316
529.83        65.85899
530.27        66.03841
530.71        66.21069
531.15        66.28748
531.59        66.25038
532.03        66.11797
532.46        65.93457
532.90        65.82253
533.34        65.79961
533.78        65.79907
534.22        65.79172
534.66        65.81096
535.09        65.79825
535.53        65.62303
535.97         65.3342
536.41        65.17632
536.85        65.17424
537.28        65.19756
537.72        65.24655
538.16        65.36436
538.60        65.53205
539.04        65.75546
539.47        65.95671
539.91        65.99934
540.35        65.88657
540.79        65.78432
541.22        65.72361
541.66        65.66059
542.10        65.60787
542.54        65.62041
542.97        65.67249
543.41        65.71742
543.85        65.73451
544.29        65.74757
544.72        65.74136
545.16        65.72816
545.60        65.69938
546.04        65.66521
546.47        65.64555
546.91         65.6601
547.35        65.71841
547.79        65.82538
548.22         65.9431
548.66        66.01767
549.10        66.08133
549.53        66.02148
549.97        65.88152
550.41        65.69106
550.84        65.54459
551.28        65.53448
551.72         65.6002
552.15        65.73134
552.59        65.99212
553.03        65.42695
553.46        65.98182
553.90        65.90192
554.34        65.75926
554.77        65.56773
555.21        65.42177
555.65        65.41181
556.08        65.52362
556.52        65.71793
556.96        65.90178
557.39        66.01854
557.83          66.041
558.27        65.84522
558.70        65.48681
559.14        65.31857
559.57        65.33272
560.01        65.16856
560.45        64.92632
560.88        65.15964
561.32        65.75227
561.75        66.02289
562.19        65.93629
562.63        65.72222
563.06        65.49822
563.50        65.50691
563.93         65.6581
564.37        65.71208
564.80         65.6608
565.24        65.47465
565.68         65.0755
566.11        65.74277
566.55        65.13012
566.98        65.08983
567.42        65.02381
567.85        65.22802
568.29        65.66528
568.72        65.96489
569.16         66.1796
569.60         66.5742
570.03        66.47502
570.47        66.80575
570.90        67.47337
571.34        66.29117
571.77         67.1993
572.21        67.59908
572.64        67.11835
573.08        67.86384
573.51        66.90885
573.95        67.01482
574.38        67.55414
574.82        67.66405
575.25        67.30412
575.69        67.44875
576.12        67.65183
576.56        66.47282
576.99        66.95897
577.42        67.20348
577.86        67.38805
578.29        68.35929
578.73        68.46905
579.16        68.23956
579.60        67.31983
580.03        67.23017
580.47        67.17573
580.90        67.95741
581.33        68.03279
581.77        68.20425
582.20        68.44901
582.64        69.03884
583.07        68.26979
583.51        67.65294
583.94        66.99415
584.37        66.94756
584.81        67.43433
585.24        67.71844
585.68        67.59705
586.11        67.88769
586.54        67.80724
586.98        67.19112
587.41        66.44704
587.85         66.9659
588.28        67.16241
588.71        66.72595
589.15        66.56802
589.58        66.80532
590.01        66.53979
590.45        66.35116
590.88        67.31664
591.31        67.09503
591.75          66.315
592.18        65.82696
592.61         65.9171
593.05         66.7207
593.48        67.88653
593.91        67.84654
594.35        67.45908
594.78        66.50338
595.21        65.73872
595.65        66.09644
596.08        67.51858
596.51        67.50587
596.94         66.6045
597.38        66.14092
597.81        66.24335
598.24        67.44441
598.68        66.72784
599.11        66.48828
599.54         67.5771
599.97        67.09751
600.41        66.83157
600.84        66.28851
601.27        66.87939
601.70        66.49581
602.14         66.9285
602.57         66.6181
603.00        66.30872
603.43         65.7093
603.87        66.78209
604.30        67.02401
604.73        66.88659
605.16        66.06464
605.60        66.00157
606.03        65.85258
606.46        65.97021
606.89        66.05051
607.32        66.44913
607.76        66.15613
608.19        66.50602
608.62        66.41379
609.05         66.3132
609.48        66.12348
609.92        66.70135
610.35        66.14172
610.78        66.22736
611.21         66.1671
611.64         65.9394
612.07        66.10201
612.50         66.1367
612.94        66.16204
613.37        66.00684
613.80        65.92484
614.23        65.33389
614.66        65.31306
615.09        65.67574
615.52        65.89298
615.96        65.81493
616.39        65.96535
616.82        66.30607
617.25        65.24972
617.68        65.56436
618.11        65.50809
618.54        65.80848
618.97        65.83401
619.40        65.62401
619.84        65.48117
620.27        65.57294
620.70         65.6622
621.13        65.70512
621.56        65.23426
621.99        64.38738
622.42        64.21356
622.85        64.79202
623.28        64.53251
623.71        64.54459
624.14        64.91837
624.57        65.36627
625.00        64.83974
625.43        65.27959
625.86        65.15693
626.29        65.21588
626.72        64.56445
627.15        65.05656
627.58        65.09369
628.01        65.02462
628.44        65.13419
628.87        65.00595
629.30        64.14665
629.73         64.3764
630.16        64.63795
630.59        64.38416
631.02        64.61183
631.45        64.92753
631.88        65.12729
632.31        65.13658
632.74        65.04287
633.17        64.88987
633.60        64.72398
634.03         64.5796
634.46        64.43936
634.89        64.30363
635.32        64.19332
635.75        64.11707
636.18        64.00734
636.61        63.91352
637.04        63.94104
637.47        64.07967
637.89        64.32481
638.32        64.58208
638.75        64.61809
639.18        64.37244
639.61        64.45959
640.04          63.977
640.47        63.86723
640.90        63.87504
641.33        63.98573
641.76        64.13411
642.18         64.2373
642.61        64.25365
643.04        64.21064
643.47        64.14428
643.90         64.1083
644.33         64.1161
644.76        64.14757
645.18        64.17698
645.61        64.14861
646.04        64.06297
646.47         63.9492
646.90         63.8462
647.33        63.79952
647.75        63.79192
648.18        63.86789
648.61         64.0388
649.04        64.05214
649.47        63.84482
649.89        64.50826
650.32        64.27022
650.75        64.21538
651.18        63.93491
651.61         63.8391
652.03        63.97263
652.46        64.23856
652.89        64.54035
653.32        64.50558
653.74        64.31585
654.17        64.07985
654.60        64.25372
655.03        64.17605
655.46        63.87601
655.88        63.76148
656.31        68.09372
656.74         73.8106
657.16        72.84966
657.59        70.69395
658.02        66.46938
658.45        65.71089
658.87        64.52122
659.30        64.54218
659.73        64.54584
660.15        64.98933
660.58        64.22942
661.01         64.0845
661.44        64.11651
661.86         63.9776
662.29        63.62519
662.72        64.05568
663.14        63.99734
663.57        63.99367
664.00        63.77586
664.42        63.83417
664.85         64.1795
665.27         64.5406
665.70        64.77174
666.13        64.83244
666.55        64.70046
666.98         64.3149
667.41        63.79597
667.83        63.76382
668.26        63.60465
668.69        63.79077
669.11        64.04812
669.54        64.22511
669.96        64.27372
670.39        64.30886
670.82        64.35307
671.24        64.24133
671.67        64.06637
672.09        64.18024
672.52        64.52484
672.94        64.65008
673.37        64.53363
673.80        64.41338
674.22        64.33755
674.65        64.24383
675.07        64.16688
675.50        64.11217
675.92         64.0803
676.35        64.05919
676.77        64.04777
677.20        64.04441
677.62        64.05828
678.05        64.10374
678.47        64.17517
678.90        64.26616
679.32        64.34571
679.75        64.38188
680.17        64.36522
680.60        64.30936
681.02        64.24588
681.45        64.23096
681.87        64.29267
682.30        64.37499
682.72        64.46858
683.15        64.59921
683.57        64.72749
684.00        64.66235
684.42        64.48677
684.85        64.50764
685.27         64.7365
685.70        65.02629
686.12        65.26475
686.54        65.34721
686.97        65.23918
687.39        64.98878
687.82        64.67855
688.24        64.46188
688.66        64.38439
689.09        64.40583
689.51        64.50113
689.94        64.59502
690.36        64.66657
690.78         64.7216
691.21        64.77608
691.63        64.84231
692.06        64.92371
692.48        65.02573
692.90        65.10726
693.33         65.0652
693.75        64.88219
694.17        64.64839
694.60        64.51516
695.02        64.24851
695.44        64.61147
695.87        64.97008
696.29        65.38855
696.71        65.30954
697.14        64.83645
697.56        64.69308
697.98        64.91201
698.41        64.98122
698.83        64.89412
699.25        65.02615
699.68        65.27027
700.10        65.32292
700.52        65.12946
700.94        64.79334
701.37         64.4678
701.79        64.40228
702.21        64.63797
702.64        65.07298
703.06          65.544
703.48        65.77071
703.90        65.67998
704.33        65.36483
704.75        64.95379
705.17        64.64473
705.59        64.51407
706.01        64.50649
706.44        64.59448
706.86        64.75932
707.28        64.96383
707.70        65.18733
708.12        65.41388
708.55        65.66437
708.97        65.89387
709.39        65.94176
709.81        65.82846
710.23        65.76125
710.66        65.76334
711.08        65.74276
711.50        65.67771
711.92        65.59736
712.34        65.50648
712.76        65.41543
713.19        65.32951
713.61        65.28935
714.03        65.29234
714.45        65.33804
714.87        65.43258
715.29        65.58695
715.71        65.78779
716.13        66.00587
716.56        66.19599
716.98        66.37457
717.40        66.49129
717.82        66.55299
718.24        66.51534
718.66        66.31018
719.08         65.9607
719.50        65.52355
719.92        65.12666
720.34        64.96061
720.76         65.0619
721.19        65.34545
721.61        65.75375
722.03        66.13379
722.45        66.41039
722.87         66.6097
723.29        66.67776
723.71        66.53704
724.13        66.20345
724.55        65.71517
724.97        65.21239
725.39        64.93307
725.81        64.94003
726.23        65.15331
726.65         65.4768
727.07        65.88851
727.49        66.09273
727.91        66.31705
728.33        66.50206
728.75        66.67739
729.17        66.84222
729.59        66.95988
730.01         67.0306
730.43         67.0666
730.85        67.06921
731.27        67.04689
731.69        66.98193
732.10        66.83756
732.52        66.61864
732.94        66.36332
733.36        66.15262
733.78        65.98098
734.20        65.85639
734.62        66.03233
735.04        66.53111
735.46        66.08711
735.88        66.65777
736.30        66.80307
736.72        67.07634
737.13        67.22781
737.55         67.1877
737.97         67.2392
738.39        67.33019
738.81        66.95428
739.23         66.3243
739.65        66.51147
740.06        67.32137
740.48        67.63532
740.90         67.3613
741.32        67.11315
741.74        66.99959
742.16        66.89703
742.57        66.84925
742.99        66.91956
743.41        67.03599
743.83        66.97222
744.25        66.74987
744.67        66.60479
745.08        66.61544
745.50        66.69035
745.92        66.84338
746.34        67.14848
746.75        67.47243
747.17        67.53395
747.59        67.29979
748.01        66.86351
748.42        66.39005
748.84        66.15997
749.26        66.24316
749.68        66.49512
750.09        66.80095
750.51        67.09962
750.93        67.26908
751.35        67.11132
751.76         66.7124
752.18        66.44604
752.60        66.35851
753.01        66.27962
753.43        66.18372
753.85        66.13489
754.27        66.14179
754.68        66.21651
755.10        66.35029
755.52        66.51646
755.93        66.68021
756.35        66.81544
756.77        66.99899
757.18         67.1533
757.60          67.252
758.02        67.73891
758.43        68.46207
758.85        67.48328
759.26        67.24224
759.68        66.62149
760.10        66.46526
760.51         66.7632
760.93        67.36051
761.34        67.30269
761.76        67.63698
762.18         67.3584
762.59        67.01348
763.01        67.14592
763.42        67.74813
763.84        67.99047
764.26        67.82536
764.67        67.59636
765.09        67.42835
765.50        67.47288
765.92         67.6543
766.33        67.36106
766.75        66.61505
767.16        66.28162
767.58        66.42123
768.00        66.43742
768.41        66.37101
768.83        66.82684
769.24        67.58541
769.66        67.73676
770.07        67.35219
770.49        67.15456
770.90        67.28751
771.32        67.74506
771.73        68.34856
772.15         68.5222
772.56        68.21941
772.97        67.75271
773.39         67.3092
773.80        67.06679
774.22        67.07397
774.63        67.33601
775.05        67.66829
775.46        67.83012
775.88        67.72803
776.29        67.47467
776.70        67.19147
777.12        67.09586
777.53        67.24352
777.95        67.50068
778.36        67.81146
778.77        68.02519
779.19        68.11225
779.60        68.22642
780.02        68.28179
780.43        68.08015
780.84        67.74692
781.26        67.29742
781.67          66.978
782.09          67.689
782.50        69.05138
782.91         69.2193
783.33         68.2541
783.74        67.93671
784.15        68.33049
784.57        68.33304
784.98        67.99745
785.39        67.94086
785.81        68.19291
786.22        68.58131
786.63        68.97475
787.04         69.1665
787.46         69.1218
787.87        68.89716
788.28        68.62826
788.70        68.49574
789.11        68.51999
789.52        68.66939
789.93        68.85275
790.35        68.90884
790.76        68.81301
791.17        68.62127
791.58        68.41754
792.00        68.27427
792.41        68.23148
792.82         68.3623
793.23        68.61427
793.65        68.59946
794.06        68.43719
794.47         68.8389
794.88        69.58784
795.29        69.78635
795.71        69.35173
796.12        68.76357
796.53        68.24451
796.94        68.02071
797.35        68.20534
797.76        68.74223
798.18        69.38714
798.59        69.77721
799.00        69.78051
799.41        69.50119
799.82        69.10539
800.23        68.87526
800.64        68.88914
801.06        69.01998
801.47        69.20931
801.88        69.27397
802.29        69.16219
802.70        68.95123
803.11        68.69963
803.52        68.48814
803.93        68.36568
804.34        68.30762
804.75         68.3336
805.17        68.51442
805.58        68.88297
805.99        69.24025
806.40        69.52906
806.81        70.03152
807.22        70.52704
807.63        70.17132
808.04        69.18975
808.45        68.72138
808.86        68.89513
809.27        69.15276
809.68        69.33752
810.09        69.42174
810.50        69.34628
810.91        69.13498
811.32        68.92995
811.73         68.9529
812.14        69.24667
812.55        69.72982
812.96        70.25189
813.37        70.52975
813.78        70.47318
814.19        70.19402
814.60        69.79435
815.01        69.40703
815.42        69.07812
815.83        68.75392
816.24        68.50324
816.65        68.46164
817.05        68.65851
817.46         69.0443
817.87        69.45651
818.28        69.58253
818.69        69.36229
819.10         68.8629
819.51        68.31792
819.92        68.15992
820.33        68.49798
820.74        69.18423
821.14        69.95656
821.55        70.39162
821.96         70.3792
822.37        70.05747
822.78        69.58955
823.19        69.25153
823.60         69.1484
824.00        69.21385
824.41        69.36485
824.82        69.57431
825.23        69.79355
825.64        70.04094
826.04         70.2675
826.45         70.3389
826.86        70.25054
827.27        70.04598
827.68        69.77396
828.08        69.55898
828.49        69.39736
828.90        69.26861
829.31        69.24175
829.72        69.42606
830.12        69.83789
830.53        70.38979
830.94        70.87154
831.35        70.87093
831.75        70.32794
832.16        69.36631
832.57        68.31569
832.97        67.68238
833.38        67.60496
833.79        67.91027
834.20        68.45216
834.60        68.98977
835.01        69.42238
835.42        69.86386
835.82        70.22897
836.23        70.28542
836.64        70.04091
837.04        69.50877
837.45        68.99719
837.86        69.08969
838.26        69.91508
838.67        71.27055
839.08        72.68496
839.48        73.25108
839.89        72.72662
840.29        71.44212
840.70        70.01996
841.11        69.17404
841.51        69.10164
841.92        69.55523
842.33        70.34028
842.73        71.11434
843.14        71.60817
843.54        71.97565
843.95        72.20788
844.35        72.34159
844.76        72.38093
845.17        72.28994
845.57        72.09195
845.98         71.8259
846.38        71.54391
846.79        71.24854
847.19        71.00497
847.60        70.87659
848.00        70.88368
848.41        70.99087
848.81        71.14076
849.22        71.14603
849.62        71.00827
850.03        70.76313
850.43        70.51633
850.84        70.37463
851.24        70.41975
851.65        70.55201
852.05        70.82608
852.46        71.20977
852.86        71.65423
853.27        72.14121
853.67        72.49377
854.07         72.5929
854.48        72.40366
854.88        71.99431
855.29        71.43864
855.69        71.02216
856.10        70.77835
856.50        70.72791
856.90        70.78643
857.31        70.82137
857.71        70.83616
858.12        70.79545
858.52        70.76862
858.92        70.74905
859.33        70.72048
859.73        70.72723
860.13        70.66724
860.54        70.40715
860.94        69.98339
861.34         69.4241
861.75        68.92252
862.15        68.83595
862.55        69.20302
862.96        69.87575
863.36        70.63121
863.76        70.99374
864.17        70.82053
864.57        70.29715
864.97        69.55621
865.38        68.82121
865.78        68.21812
866.18        67.66766
866.58        67.29214
866.99        67.30047
867.39        67.73099
867.79        68.52977
868.19         69.4088
868.60        69.89176
869.00        69.89952
869.40        69.49416
869.80        68.95255
870.21        68.82385
870.61        69.31514
871.01        70.19141
871.41        71.04794
871.81        71.32327
872.22        70.91592
872.62        69.99866
873.02        68.96577
873.42        68.48373
873.82         68.7287
874.22        69.48078
874.63        70.32101
875.03        70.60487
875.43        70.16573
875.83         69.2423
876.23        68.17921
876.63        67.49034
877.03        67.32674
877.44        67.50349
877.84        67.86675
878.24        68.17171
878.64        68.27313
879.04        68.12023
879.44        67.87505
879.84        67.87334
880.24        68.14395
880.64        68.53583
881.04        68.80791
881.44        68.61474
881.84         67.9071
882.24        66.83462
882.65        65.75343
883.05        65.19637
883.45        65.30071
883.85        65.93141
884.25        66.80201
884.65        67.40821
885.05        67.59218
885.45        67.49206
885.85        67.31792
886.25        67.40224
886.65        67.81444
887.05        68.40771
887.45        69.00143
887.85        69.31932
888.25         69.2703
888.65         68.9515
889.04        68.47531
889.44        68.03214
889.84        67.68413
890.24        67.40587
890.64        67.16969
891.04        66.93311
891.44        66.69941
891.84        66.50424
892.24        66.41674
892.64        66.52048
893.04        66.82079
893.44        67.28652
893.83        67.80952
894.23        68.16452
894.63        68.30339
895.03        68.23894
895.43        68.11233
895.83        68.17431
896.23        68.46248
896.63        68.88995
897.02        69.22345
897.42         69.1133
897.82        68.51901
898.22         67.6284
898.62        66.70551
899.01        66.12722
899.41         66.0032
899.81        66.17709
900.21        66.56684
900.61         67.0365
901.00        67.49065
901.40        67.95833
901.80        68.28279
902.20        68.20712
902.59        67.72716
902.99        66.92201
903.39        66.06715
903.79        65.62851
904.18        65.70955
904.58        66.16017
904.98        66.81205
905.38        67.40398
905.77        67.83921
906.17         68.2216
906.57        68.44493
906.96         68.3372
907.36        67.89381
907.76         67.1703
908.15        66.51204
908.55        66.46022
908.95        67.12144
909.34        68.34388
909.74        69.67723
910.14        70.44396
910.53        70.41768
910.93          69.817
911.33        68.90429
911.72         68.0854
912.12        67.57456
912.52        67.26511
912.91        67.10061
913.31        67.01887
913.70        66.99228
914.10        67.02986
914.49        67.23034
914.89        67.64517
915.29         68.2702
915.68        69.05409
916.08        69.70985
916.47        69.85426
916.87        69.43662
917.26        68.57065
917.66        67.65348
918.05        67.14107
918.45        67.14777
918.84         67.5873
919.24        68.18449
919.64        68.58071
920.03        68.66367
920.42        68.50713
920.82        68.32195
921.21        68.37901
921.61        68.72014
922.00        69.27766
922.40        69.81209
922.79        70.06894
923.19        69.93967
923.58        69.54176
923.98        69.06894
924.37        68.73466
924.77         68.6134
925.16        68.59811
925.55        68.62505
925.95          68.567
926.34        68.40122
926.74        68.17076
927.13        67.86134
927.52         67.3702
927.92        66.77071
928.31        66.10845
928.70        65.56672
929.10        65.39803
929.49        65.62498
929.89        66.09137
930.28        66.77515
930.67        67.51123
931.07        68.16723
931.46        68.85684
931.85        69.26654
932.24        68.95887
932.64        67.96538
933.03        66.40817
933.42        64.96381
933.82        64.62289
934.21        65.56153
934.60        67.55314
934.99         69.8577
935.39        71.10897
935.78        70.93916
936.17        69.63399
936.56        67.92785
936.96        67.00106
937.35        67.15981
937.74        68.03799
938.13         69.0407
938.53        69.25224
938.92        68.47795
939.31        67.11455
939.70        65.68037
940.09        64.87881
940.49        64.85324
940.88        65.38795
941.27        66.23351
941.66        66.93996
942.05        67.32993
942.44        67.56982
942.84        67.70843
943.23        67.80795
943.62        67.90537
944.01        67.88016
944.40        67.86674
944.79        68.13302
945.18        68.68604
945.57        69.46704
945.97        70.04525
946.36        69.78387
946.75         68.5682
947.14        66.72772
947.53        64.85982
947.92        63.80155
948.31        63.74561
948.70        64.44773
949.09        65.60307
949.48        66.66716
949.87        67.39943
950.26        67.90772
950.65        68.22672
951.04        68.43475
951.43        68.55759
951.82         68.5166
952.21        68.29309
952.60        67.90474
952.99        67.41034
953.38        66.90172
953.77        66.48429
954.16        66.28382
954.55        66.33077
954.94        66.56801
955.33        66.98249
955.72         67.5397
956.11        68.15895
956.50        68.79832
956.89        69.23551
957.28        69.12437
957.66        68.41595
958.05        67.30392
958.44        66.08382
958.83        65.17104
959.22        64.67248
959.61        64.48046
960.00         64.5454
960.39        64.76174
960.78        65.03431
961.16        65.35123
961.55        65.63066
961.94        65.69111
962.33        65.52883
962.72        65.21257
963.11        64.80794
963.49         64.5182
963.88        64.37099
964.27        64.30824
964.66        64.48552
965.04         65.1667
965.43        66.30772
965.82        67.90791
966.21         69.4224
966.60        69.78542
966.98        68.71596
967.37        66.63106
967.76        64.42771
968.15        63.25341
968.53        63.32135
968.92        64.37025
969.31        65.78001
969.69        66.31554
970.08        65.53625
970.47        63.89904
970.86        62.27142
971.24        61.85163
971.63         62.8722
972.02        64.98205
972.40        67.44956
972.79        68.55378
973.17        67.82375
973.56        65.87371
973.95        63.63129
974.33         62.2896
974.72        62.11356
975.11        62.69255
975.49         63.7088
975.88        64.49147
976.26        64.80141
976.65        64.84475
977.04        64.66399
977.42        64.25388
977.81        63.65822
978.19        62.84401
978.58        62.17197
978.96        62.22408
979.35        63.07865
979.74        64.59258
980.12        66.37952
980.51        67.46796
980.89        67.67463
981.28        67.23513
981.66        66.51961
982.05        66.05254
982.43        66.01411
982.82        66.22602
983.20        66.75961
983.59        67.63647
983.97        68.85992
984.35        70.37177
984.74        71.75926
985.12         72.5519
985.51        72.53865
985.89        71.86625
986.28        70.88961
986.66        70.08633
987.04        69.67353
987.43        69.49653
987.81        69.50119
988.20        69.45393
988.58        69.30125
988.96        69.04002
989.35        68.74213
989.73        68.46812
990.12        68.21049
990.50        68.00819
990.88        67.61868
991.27        66.68497
991.65        65.26186
992.03        63.55456
992.42        62.18843
992.80        61.98034
993.18        63.07486
993.56        65.26159
993.95         67.8387
994.33        69.57799
994.71        69.88946
995.10        69.19737
995.48        68.07536
995.86         67.5257
996.24        67.80239
996.63        68.39858
997.01        69.28781
997.39        70.05604
997.77        70.43974
998.15        70.73245
998.54        70.53434
998.92        69.06557
999.30        66.48762
999.68        63.13686
1000.06        60.20087
1000.45        59.35722
1000.83        61.00865
1001.21        64.82548
1001.59        69.71725
1001.97        72.93839
1002.35        73.33336
1002.73        71.69711
1003.12         69.3794
1003.50        68.11328
1003.88        68.44845
1004.26        69.68069
1004.64        71.57627
1005.02        73.60919
1005.40        75.30946
1005.78        76.99187
1006.16        77.88098
1006.54        76.70232
1006.92        73.56927
1007.30        69.04803
1007.69        64.81032
1008.07        63.09037
1008.45        64.53613
1008.83        68.69306
1009.21        74.45317
1009.59        78.81261
1009.97        80.11345
1010.35        79.03505
1010.73        76.43549
1011.11        73.69401
1011.49        71.46423
1011.86        69.45882
1012.24        67.91283
1012.62        67.10379
1013.00        67.00713
1013.38        67.60244
1013.76        68.85076
1014.14        70.35377
1014.52        71.71931
1014.90        72.88493
1015.28        73.38455
1015.66        72.69852
1016.04        70.87265
1016.41        68.07003
1016.79        65.07142
1017.17        63.48226
1017.55        63.74002
1017.93        65.31329
1018.31         67.4145
1018.69         68.8923
1019.06        69.47688
1019.44        69.56104
1019.82        69.12275
1020.20        68.21503
1020.58        67.05503
1020.95        65.48824
1021.33        64.37418
1021.71        64.66291
1022.09        66.46285
1022.46        69.93766
1022.84        73.86903
1023.22        75.16635
1023.60        72.74345
1023.97        67.52223
1024.35         62.4702
1024.73        60.92469
