SpectraSmart Spectrum 2.9.0.0
--------- Device Information -----------
Spectrum Name :  反射率_0
Saving Time :  2024/04/27 00:35:28
Spectro-Module Model Name : SE2030-DUVN
Spectro-Module Serial Number : OS361AC55029948
Wavelength Start : 200
Wavelength End : 1025
Wavelength Unit : Wavelength(nm)
Spectrum Unit : Reflectance(%)
-----------Spectrum Setting ------------
Integration Time : 20ms
Average : 10
Boxcar : 0
Background removal :  enabled
linearity correction :  enabled
SC :  disabled
Intensity correction :  disabled
DWT denoise :  enabled
savitzky-golay :  disabled
FFT :  disabled
Running average :  disabled
Kalman :  disabled
High pass :  disabled
---------------BEGIN--------------------
Wavelength(nm)             Reflectance(%)
200.29               0
200.75          42.463
201.21        45.24333
201.67        47.99052
202.13        50.13919
202.58         51.7946
203.04        53.80959
203.50        56.59047
203.96        60.08771
204.42        63.93623
204.88        67.58171
205.34        70.37019
205.80        71.98843
206.26        72.15888
206.72        70.60504
207.18        68.34966
207.64        66.06973
208.10        63.63181
208.55        61.34933
209.01        57.25745
209.47        50.16282
209.93         43.3323
210.39        39.07804
210.85         38.0285
211.31        40.33693
211.77         46.9299
212.23        62.92044
212.69        103.6418
213.14         173.181
213.60        172.1039
214.06        123.9694
214.52        91.14747
214.98        77.08296
215.44        71.85965
215.90        69.17633
216.36        67.92389
216.81         67.1955
217.27        66.72386
217.73        68.21345
218.19          69.534
218.65        63.79041
219.11        53.06918
219.57        43.40881
220.02        39.04694
220.48        42.08511
220.94        52.24924
221.40        71.07943
221.86         98.7127
222.32        118.9617
222.77        115.7086
223.23        98.87748
223.69        80.00332
224.15        65.87715
224.61         56.3043
225.06        48.88879
225.52        43.90997
225.98        41.48885
226.44        41.12619
226.90        42.65825
227.36        44.80139
227.81        45.31666
228.27        43.98655
228.73        41.46499
229.19        39.38536
229.65         39.7284
230.10        42.46778
230.56        46.77893
231.02        50.94468
231.48        52.24671
231.93        50.26997
232.39        46.52552
232.85        42.61874
233.31        40.57603
233.77        40.66833
234.22        42.19215
234.68        44.34065
235.14        46.00024
235.60         46.7775
236.05        47.06326
236.51        47.01361
236.97        46.91913
237.43        46.94354
237.88        46.94398
238.34        46.95267
238.80         47.3404
239.26        48.32426
239.71        50.40084
240.17        53.41817
240.63        56.94081
241.08        60.63328
241.54        63.84032
242.00        67.66577
242.46        75.04087
242.91        88.75275
243.37        111.1534
243.83        142.4992
244.28        167.8624
244.74        166.0142
245.20        137.6511
245.66        104.3195
246.11        84.71007
246.57        79.23878
247.03         82.3884
247.48        88.55031
247.94        88.44852
248.40        82.11464
248.85        74.61369
249.31        69.16112
249.77        66.92003
250.22        67.35705
250.68        69.56359
251.14        72.92773
251.59        75.28062
252.05        75.38918
252.51        74.56104
252.96         72.8504
253.42        70.78103
253.88        68.56767
254.33        65.82447
254.79        64.48717
255.25        65.82515
255.70        69.36793
256.16        74.54015
256.62        78.56597
257.07        77.47536
257.53         72.8074
257.99        67.13432
258.44        62.54081
258.90        61.03735
259.35        61.53249
259.81        63.26577
260.27        64.85066
260.72        64.68876
261.18        63.03342
261.63        60.41399
262.09        58.04722
262.55        56.66943
263.00        56.14732
263.46        56.23293
263.91        56.15822
264.37        55.28697
264.83        53.59161
265.28        51.40685
265.74         49.4573
266.19        48.32756
266.65        48.11983
267.11        48.46151
267.56        48.90868
268.02         48.7763
268.47        47.88783
268.93        46.52331
269.38        44.91682
269.84        43.47417
270.30        42.31902
270.75        41.32476
271.21        40.51165
271.66        39.85712
272.12        39.32984
272.57        38.91794
273.03        38.53096
273.48        37.99223
273.94        37.31299
274.39        36.50743
274.85        35.69456
275.31        34.91574
275.76        34.17487
276.22         33.4897
276.67        32.86251
277.13        32.38655
277.58        32.01029
278.04        31.73304
278.49        31.41718
278.95        30.97134
279.40        30.34142
279.86         29.6479
280.31         28.9274
280.77        28.33352
281.22         27.8609
281.68        27.51419
282.13        27.25241
282.59        27.10153
283.04        27.01727
283.50        27.01225
283.95        27.02591
284.41        26.97271
284.86        26.83299
285.32        26.65228
285.77        26.47086
286.22        26.41119
286.68        26.48968
287.13        26.63002
287.59        26.79382
288.04        26.87651
288.50        26.87328
288.95        26.79372
289.41        26.67223
289.86        26.49189
290.32        26.30632
290.77        26.11982
291.22        26.00098
291.68        26.03451
292.13        26.23668
292.59        26.61572
293.04        27.14793
293.50         27.8059
293.95        28.56338
294.40        29.42516
294.86        30.38923
295.31        31.44381
295.77        32.58667
296.22        33.79716
296.68        35.06218
297.13        36.35328
297.58        37.67483
298.04        39.03546
298.49        40.45629
298.95        41.98825
299.40        43.62109
299.85        45.33736
300.31        47.09132
300.76        48.79391
301.21        50.43406
301.67        52.05079
302.12        53.65393
302.58        55.34425
303.03         57.0918
303.48        58.88366
303.94        60.70314
304.39         62.4659
304.84        64.18145
305.30        65.88795
305.75        67.55666
306.20        69.22598
306.66        70.91956
307.11        72.59739
307.57        74.27261
308.02        75.86397
308.47        77.38523
308.93        78.85658
309.38        80.30663
309.83        81.89274
310.29        83.63031
310.74         85.4511
311.19        87.19823
311.65        88.58962
312.10        89.53849
312.55        90.12789
313.00        90.54852
313.46        91.10609
313.91        91.86639
314.36        92.78069
314.82        93.72722
315.27        94.51829
315.72        95.08131
316.18        95.50379
316.63        95.85604
317.08        96.29198
317.53        96.85075
317.99        97.46447
318.44        98.06928
318.89        98.53877
319.35        98.83366
319.80        99.00074
320.25        99.09983
320.70        99.22607
321.16        99.41313
321.61        99.68098
322.06        99.98228
322.51        100.2475
322.97         100.445
323.42        100.5917
323.87        100.7903
324.32        101.2281
324.78        101.8911
325.23        102.7902
325.68        103.6194
326.13        103.8853
326.59        103.4902
327.04        102.6174
327.49        101.6794
327.94        101.3561
328.39        101.8127
328.85        102.8305
329.30        104.1461
329.75         105.027
330.20        105.2288
330.66         104.925
331.11         104.461
331.56        104.3234
332.01        104.6647
332.46        105.3082
332.92        105.9953
333.37         106.458
333.82        106.5441
334.27        106.4127
334.72        106.2207
335.17         106.194
335.63        106.4145
336.08        106.8682
336.53         107.524
336.98        108.3794
337.43        109.3919
337.88        110.5209
338.34        111.6672
338.79        112.7785
339.24        113.7417
339.69        114.5544
340.14        115.1044
340.59        115.2501
341.05        115.0385
341.50        114.5337
341.95        114.0336
342.40        113.9849
342.85        114.4883
343.30        115.4297
343.75        116.5494
344.20        117.3935
344.66        117.8298
345.11        117.9849
345.56        118.0111
346.01        118.1608
346.46        118.5186
346.91        118.9962
347.36        119.5212
347.81        120.0085
348.26        120.4081
348.72        120.7226
349.17        120.9844
349.62        121.2754
350.07        121.5976
350.52        121.9488
350.97        122.1301
351.42        121.8335
351.87        121.0571
352.32        119.9391
352.77        118.8956
353.22        118.5248
353.67        118.9266
354.13        119.9141
354.58         121.066
355.03        121.6287
355.48        121.3874
355.93         120.545
356.38        119.5112
356.83        118.9138
357.28        118.8859
357.73        119.2117
358.18        119.5296
358.63        119.2726
359.08        118.3168
359.53        116.8856
359.98        115.3337
360.43        114.1579
360.88        113.4715
361.33        113.1195
361.78        112.8471
362.23        112.2573
362.68        111.2691
363.13        110.0419
363.58        108.8019
364.03        107.8793
364.48        107.3404
364.93        107.0436
365.38        106.8261
365.83        106.4437
366.28        105.8161
366.73        105.0281
367.18        104.1299
367.63          103.19
368.08        102.2522
368.53        101.3048
368.98        100.3888
369.43        99.57195
369.88        98.87022
370.33        98.27734
370.78        97.76916
371.23        97.29559
371.68        96.83382
372.13        96.38499
372.58        95.93394
373.03        95.46209
373.48        94.95332
373.93        94.38824
374.38        93.77129
374.83        93.12567
375.28        92.46108
375.72        91.76559
376.17        91.07599
376.62        90.33022
377.07        89.54788
377.52        88.78331
377.97        88.09787
378.42        87.59886
378.87         87.3047
379.32        87.13483
379.77        87.08967
380.22        87.17269
380.67        87.33414
381.11        87.58758
381.56        87.65878
382.01        87.19896
382.46        86.20119
382.91        84.85205
383.36        83.53337
383.81        82.76639
384.26         82.6301
384.71        82.94588
385.15        83.48176
385.60        83.81744
386.05        83.80408
386.50         83.5542
386.95        83.10348
387.40        82.51933
387.85        81.86909
388.29        81.09698
388.74        80.40115
389.19        79.85096
389.64        79.46066
390.09        79.21117
390.54        79.04409
390.98        78.83231
391.43         78.5789
391.88         78.2997
392.33        78.03447
392.78        77.79388
393.23        77.57366
393.67         77.4541
394.12        77.43954
394.57        77.08458
395.02        76.52084
395.47        76.45285
395.91        76.80398
396.36        76.78593
396.81        76.37477
397.26         76.0143
397.71        75.75288
398.15        75.45408
398.60        75.21535
399.05        74.97829
399.50        74.76334
399.95         74.6722
400.39        74.68932
400.84        74.58609
401.29        74.33094
401.74        74.10841
402.18        73.87952
402.63        73.29963
403.08        72.59133
403.53        72.34216
403.97        72.59796
404.42        73.10075
404.87        73.59727
405.32        73.72771
405.76        73.39491
406.21        72.81821
406.66         72.1796
407.11        71.65836
407.55        71.44863
408.00        71.64318
408.45        72.10727
408.90        72.58978
409.34        72.78772
409.79        72.18114
410.24        71.09377
410.68        70.57842
411.13        70.74512
411.58        71.03548
412.03        71.25842
412.47         71.3345
412.92          71.167
413.37        70.82639
413.81        70.45538
414.26        70.32393
414.71        70.45604
415.15        70.79893
415.60        71.20031
416.05        71.47534
416.49        71.55932
416.94        71.49655
417.39        71.37522
417.83        71.31656
418.28        71.35902
418.73        71.45726
419.17        71.56257
419.62        71.60538
420.07        71.56299
420.51        71.44724
420.96        71.32669
421.41        71.23912
421.85        71.17432
422.30         71.1993
422.74        71.20956
423.19        71.13334
423.64        70.94673
424.08        70.75302
424.53        70.61713
424.98        70.62291
425.42        70.79799
425.87        71.18537
426.31        71.63692
426.76        71.65342
427.21        71.30938
427.65        71.19559
428.10        71.32965
428.54        71.42716
428.99        71.52991
429.44        71.46836
429.88        71.38902
430.33        72.03489
430.77         72.9977
431.22        73.24409
431.66        72.70027
432.11        71.77192
432.56        70.85841
433.00        70.73425
433.45        71.59106
433.89        72.60822
434.34        72.88071
434.78         74.1431
435.23        73.01535
435.67        70.41768
436.12        71.08989
436.57        71.37565
437.01        72.51058
437.46        72.87552
437.90        72.40713
438.35         72.0025
438.79        71.82697
439.24        71.79612
439.68        71.90691
440.13        72.35869
440.57          73.028
441.02        73.11009
441.46        72.72329
441.91        73.28784
442.35        74.37601
442.80        74.26778
443.24        73.18031
443.69         72.9827
444.13        73.67688
444.58        74.09308
445.02        74.11412
445.47        74.12148
445.91        74.17449
446.36        74.33669
446.80        74.58714
447.24        74.98397
447.69        75.10264
448.13         75.2316
448.58        75.25912
449.02         75.1642
449.47        75.03043
449.91        74.92876
450.36        74.90451
450.80        75.02342
451.25        75.22808
451.69        75.11124
452.13        74.78613
452.58         74.8485
453.02        75.24274
453.47        75.39086
453.91        75.25227
454.36        75.16355
454.80        75.11035
455.24        74.88242
455.69         74.4992
456.13        74.11115
456.58        73.83369
457.02         73.4245
457.46        73.07987
457.91        73.43667
458.35        74.17429
458.79        74.27316
459.24        73.74323
459.68        72.93261
460.13        72.12139
460.57        71.87738
461.01        72.41428
461.46        71.92786
461.90        72.65647
462.34        73.59515
462.79        73.12881
463.23         73.2151
463.68         73.3429
464.12        73.16554
464.56        72.68346
465.01          71.973
465.45        71.23406
465.89        70.91761
466.34        70.95218
466.78        71.21061
467.22        71.68353
467.67        70.79908
468.11         71.2054
468.55        71.10711
468.99        71.23997
469.44        71.16682
469.88        70.90746
470.32        70.67747
470.77        70.49779
471.21        70.35989
471.65        70.26053
472.10        70.21239
472.54        70.20767
472.98        70.18006
473.42        70.09784
473.87        70.17815
474.31        70.30034
474.75        69.88663
475.20        69.15701
475.64        69.19173
476.08        69.88773
476.52        69.96034
476.97        69.30052
477.41        69.40813
477.85        69.12334
478.29        68.85348
478.74        69.23829
479.18        69.68533
479.62        69.59637
480.06        69.67151
480.50        69.63585
480.95        69.61163
481.39        69.64721
481.83        69.06104
482.27        69.29738
482.72        69.25562
483.16        69.40305
483.60        69.20353
484.04        69.41141
484.48        69.56008
484.93        69.77637
485.37         69.5115
485.81        69.03804
486.25        69.08479
486.69        70.70345
487.14        71.03558
487.58        68.97554
488.02        69.49052
488.46        68.46085
488.90         68.3427
489.34        69.93987
489.79        70.72659
490.23        69.69057
490.67        68.98426
491.11        68.48634
491.55        68.34407
491.99        68.48309
492.43        68.38034
492.88        68.04693
493.32        67.99522
493.76        68.21375
494.20        68.34129
494.64        68.33601
495.08        68.33949
495.52        68.34345
495.96        68.25234
496.41         68.1091
496.85         68.1049
497.29        68.11586
497.73        68.23059
498.17        67.61466
498.61        67.52894
499.05        67.73424
499.49        67.95403
499.93        67.90383
500.37        68.14654
500.82        68.52625
501.26        68.33725
501.70        68.08514
502.14        67.92007
502.58        68.02168
503.02        68.05477
503.46        68.02948
503.90        68.17759
504.34        68.40331
504.78        68.42215
505.22        68.21375
505.66        67.88755
506.10        67.58139
506.54        67.46984
506.98        67.50733
507.42        67.62077
507.86        67.73075
508.30        67.24957
508.74        67.68526
509.18        67.64874
509.62        67.59183
510.06        67.54588
510.50        67.52563
510.94        67.48438
511.38        67.43614
511.82        67.45126
512.26        67.53281
512.70        67.66982
513.14        67.80573
513.58        67.84387
514.02        67.76651
514.46        67.60263
514.90        67.42449
515.34        67.35001
515.78         67.4035
516.22         67.5434
516.66        67.70111
517.10        67.76536
517.54        67.70997
517.98        67.58074
518.42        67.41869
518.86         67.2879
519.30        67.21346
519.74        67.16985
520.18        67.17048
520.62        67.23685
521.06        67.36374
521.50        67.55078
521.93        67.73935
522.37        67.80937
522.81        67.74639
523.25        67.57446
523.69        67.38181
524.13        67.31291
524.57        67.39058
525.01        67.56121
525.45        67.73283
525.89        67.75582
526.32        67.59486
526.76        67.33222
527.20        67.02853
527.64        66.80111
528.08        66.69106
528.52        66.60159
528.96        66.55535
529.40        66.72495
529.83        67.02746
530.27        67.15146
530.71        67.07684
531.15        67.04723
531.59        67.06525
532.03        66.96416
532.46          66.772
532.90         66.6668
533.34        66.66058
533.78        66.67306
534.22        66.67297
534.66        66.69176
535.09        66.66962
535.53        66.47418
535.97        66.16412
536.41        66.00114
536.85        66.01382
537.28        66.06749
537.72         66.1452
538.16        66.27121
538.60        66.42271
539.04        66.58587
539.47        66.70814
539.91        66.75256
540.35        66.70016
540.79        66.57284
541.22        66.40896
541.66        66.29433
542.10        66.24641
542.54        66.24463
542.97         66.2694
543.41        66.31722
543.85        66.36926
544.29        66.43887
544.72        66.49093
545.16        66.51102
545.60        66.48313
546.04        66.41458
546.47        66.35531
546.91         66.3824
547.35        66.50314
547.79        66.69661
548.22        66.88461
548.66        66.92857
549.10        66.88132
549.53        66.75392
549.97        66.61385
550.41        66.42738
550.84         66.2949
551.28        66.36192
551.72         66.5332
552.15        66.71088
552.59        66.94797
553.03        66.30695
553.46         66.8007
553.90        66.68776
554.34        66.55747
554.77        66.43534
555.21        66.41956
555.65         66.3399
556.08        66.73159
556.52        66.81586
556.96         66.7431
557.39        66.82352
557.83        67.00647
558.27        66.80153
558.70        66.28625
559.14        66.07594
559.57        66.16023
560.01        66.12666
560.45        66.01199
560.88        66.13607
561.32        66.46558
561.75        66.75861
562.19        66.94081
562.63        66.80221
563.06        66.44756
563.50        66.40852
563.93         66.6107
564.37        66.64902
564.80        66.55208
565.24        66.45975
565.68        66.22245
566.11         66.9379
566.55        66.20818
566.98         65.9113
567.42        65.69376
567.85        65.82998
568.29        66.32157
568.72        66.71393
569.16        67.01143
569.60        67.21268
570.03        67.35823
570.47        67.49817
570.90        67.71407
571.34        67.08978
571.77        67.35556
572.21        67.67239
572.64        67.39032
573.08        67.63754
573.51        67.14299
573.95        67.26193
574.38        67.84811
574.82        67.56542
575.25        67.12974
575.69        67.23969
576.12        67.58244
576.56        66.62248
576.99        67.27018
577.42        67.43446
577.86        67.17596
578.29        68.22176
578.73        68.30215
579.16        68.16659
579.60        67.28402
580.03        67.11602
580.47        67.17764
580.90        68.03644
581.33        67.81866
581.77        68.40215
582.20        68.09234
582.64        68.37538
583.07         67.7859
583.51        67.48321
583.94        67.37782
584.37        67.45517
584.81        67.67686
585.24        67.72318
585.68        67.50626
586.11        67.72243
586.54         67.6847
586.98        66.91434
587.41        66.42405
587.85         67.1069
588.28        67.20525
588.71        66.56567
589.15        66.49702
589.58        66.82389
590.01        66.26029
590.45        66.21029
590.88         67.4991
591.31        67.52783
591.75        66.89925
592.18        66.36516
592.61        66.11295
593.05        67.36064
593.48        68.15053
593.91        67.54032
594.35        67.18742
594.78        66.43059
595.21        66.09769
595.65        66.58037
596.08        67.64691
596.51        67.82697
596.94        66.92647
597.38        66.52925
597.81        66.73889
598.24        67.37967
598.68        66.91499
599.11        66.53015
599.54        67.98563
599.97        67.41057
600.41        66.94872
600.84        66.33209
601.27        67.01897
601.70        66.77508
602.14        67.07944
602.57        66.91917
603.00        66.89697
603.43        66.05411
603.87        66.96496
604.30        67.19902
604.73        66.98201
605.16        66.51942
605.60        66.47115
606.03        66.20414
606.46        65.94398
606.89        66.13474
607.32        66.59339
607.76        66.38252
608.19        66.60047
608.62        66.59454
609.05        66.45512
609.48        66.43368
609.92        67.26691
610.35        66.87765
610.78        66.40853
611.21        66.05141
611.64        65.96574
612.07        66.35479
612.50        66.68907
612.94        66.84759
613.37        66.62029
613.80        66.47318
614.23        65.71115
614.66        65.61892
615.09         66.0621
615.52        66.16574
615.96        65.89149
616.39        65.96413
616.82        66.46557
617.25        65.76237
617.68         66.1509
618.11        66.10902
618.54        66.28984
618.97        66.32093
619.40         66.2129
619.84         66.2822
620.27        66.05896
620.70        66.10943
621.13        66.25055
621.56        65.53066
621.99        64.82354
622.42        64.67368
622.85        65.33992
623.28        65.18705
623.71        65.13007
624.14        65.58471
624.57        65.67986
625.00        65.38872
625.43        65.61338
625.86        65.53349
626.29        65.60924
626.72        64.95547
627.15        65.41624
627.58        65.42451
628.01        65.40392
628.44        65.58507
628.87        65.16376
629.30        65.11012
629.73        65.18034
630.16         65.2195
630.59        65.21706
631.02        65.30935
631.45        65.49312
631.88        65.62879
632.31         65.6844
632.74        65.84209
633.17        65.79261
633.60        65.71635
634.03        65.53468
634.46        65.27048
634.89        64.97811
635.32        64.76999
635.75        64.68264
636.18        64.61496
636.61        64.57969
637.04        64.63274
637.47        64.76206
637.89        64.94466
638.32        65.09166
638.75        65.12012
639.18        65.01125
639.61        64.78903
640.04         64.5461
640.47        64.43366
640.90        64.48808
641.33        64.67111
641.76         64.9005
642.18        65.04337
642.61        65.03935
643.04        64.93475
643.47        64.79919
643.90        64.74581
644.33        64.79808
644.76        64.91394
645.18        65.02692
645.61        65.01313
646.04        64.86138
646.47        64.63309
646.90        64.39508
647.33        64.24474
647.75        64.18408
648.18        64.21474
648.61        64.36758
649.04        64.46852
649.47         64.4129
649.89        65.19266
650.32          64.988
650.75        64.86732
651.18        64.45757
651.61        64.34361
652.03        64.55495
652.46        64.76661
652.89        64.88737
653.32        64.77638
653.74        64.62771
654.17        64.35748
654.60        64.97769
655.03        65.04533
655.46        64.07164
655.88        64.42202
656.31        68.26939
656.74        71.22382
657.16        69.77493
657.59        68.30994
658.02        66.15256
658.45        66.12559
658.87        64.91254
659.30        65.11973
659.73        65.03181
660.15        66.22746
660.58        64.90701
661.01        64.62226
661.44        64.46535
661.86        64.29066
662.29         64.0512
662.72        64.57243
663.14        64.54758
663.57        64.52013
664.00        64.24194
664.42        64.28815
664.85        64.67595
665.27        65.06499
665.70        65.30779
666.13        65.39761
666.55        65.30871
666.98        64.97113
667.41        64.47771
667.83        64.40925
668.26        64.14671
668.69         64.1887
669.11        64.30283
669.54        64.43045
669.96        64.54652
670.39        64.66847
670.82        64.79369
671.24        64.88366
671.67        64.92794
672.09        64.91239
672.52        64.87521
672.94        64.84098
673.37        64.82597
673.80         64.8197
674.22         64.8194
674.65        64.78281
675.07         64.7233
675.50        64.64512
675.92        64.57134
676.35         64.5234
676.77        64.50921
677.20        64.51604
677.62        64.53905
678.05        64.57113
678.47        64.60185
678.90        64.63554
679.32         64.6539
679.75        64.63994
680.17        64.58771
680.60         64.5182
681.02        64.45742
681.45        64.42147
681.87        64.42841
682.30        64.55212
682.72        64.57697
683.15        64.72794
683.57        64.90285
684.00        64.90833
684.42        64.79883
684.85        64.84533
685.27        65.05859
685.70        65.29062
686.12        65.43737
686.54        65.53056
686.97        65.57015
687.39         65.3491
687.82         64.8556
688.24        65.30875
688.66        64.81974
689.09        64.88189
689.51        64.92365
689.94        65.02041
690.36        65.12473
690.78        65.11026
691.21        65.03071
691.63         65.0437
692.06        65.15565
692.48        65.24454
692.90        65.25343
693.33        65.18441
693.75        65.02475
694.17        64.72812
694.60        64.44096
695.02        64.38698
695.44        64.56863
695.87        65.03436
696.29        65.56635
696.71        65.36356
697.14         64.6163
697.56        64.47665
697.98        64.91814
698.41        65.22952
698.83        64.91547
699.25        64.98568
699.68        65.23214
700.10        65.30633
700.52        65.15799
700.94        64.91095
701.37        64.68005
701.79        64.63951
702.21        64.82045
702.64         65.1414
703.06        65.49158
703.48        65.68022
703.90        65.65326
704.33        65.46965
704.75        65.21086
705.17        65.00053
705.59        64.88898
706.01        64.84473
706.44        64.85947
706.86        64.92326
707.28        65.01191
707.70        65.15435
708.12        65.35024
708.55        65.44017
708.97        65.65971
709.39        65.73315
709.81        65.73652
710.23        65.73631
710.66        65.73825
711.08        65.71784
711.50        65.64487
711.92        65.51752
712.34        65.34488
712.76        65.14405
713.19         64.9626
713.61        64.91272
714.03        65.00313
714.45        65.20947
714.87        65.47574
715.29        65.71633
715.71        65.89534
716.13        66.00928
716.56        66.06273
716.98        66.16168
717.40        66.28352
717.82        66.40691
718.24        66.45102
718.66        66.28578
719.08        65.91669
719.50        65.43423
719.92        64.98592
720.34        64.76509
720.76          64.831
721.19        65.14479
721.61        65.63168
722.03        66.06426
722.45        66.35584
722.87        66.56519
723.29        66.65861
723.71        66.57533
724.13        66.33167
724.55        65.95594
724.97        65.54328
725.39        65.26422
725.81        65.17251
726.23         65.2111
726.65        65.34299
727.07        65.64133
727.49        65.83507
727.91        66.12433
728.33        66.40009
728.75        66.60564
729.17        66.71559
729.59        66.72366
730.01        66.66583
730.43        66.60958
730.85        66.57642
731.27        66.55762
731.69        66.52122
732.10        66.41137
732.52        66.22073
732.94        65.98786
733.36        65.79899
733.78        65.64713
734.20        65.53786
734.62         65.7487
735.04        66.27238
735.46        65.74915
735.88        66.15125
736.30        66.18472
736.72        66.43625
737.13        66.60119
737.55        66.61726
737.97        66.82016
738.39        67.09505
738.81        66.81108
739.23        66.15089
739.65        66.19454
740.06        66.82939
740.48        67.07914
740.90        66.88105
741.32        66.80123
741.74        66.88681
742.16        66.92872
742.57        66.93374
742.99        66.94414
743.41        66.94057
743.83        66.87154
744.25        66.73692
744.67        66.54668
745.08        66.37254
745.50        66.30888
745.92        66.37741
746.34        66.53413
746.75        66.71349
747.17        66.77099
747.59        66.68009
748.01        66.56857
748.42        66.45834
748.84        66.22247
749.26        65.98203
749.68        66.05235
750.09        66.37417
750.51        66.68929
750.93        66.85023
751.35        66.65673
751.76        66.20274
752.18        65.94605
752.60        65.93022
753.01        65.89816
753.43        65.82537
753.85        65.83339
754.27        65.92564
754.68        66.08161
755.10        66.27128
755.52        66.44244
755.93        66.56576
756.35        66.62946
756.77        66.69002
757.18        66.78032
757.60        66.90234
758.02        67.20949
758.43        67.54831
758.85        67.27033
759.26        66.71014
759.68        66.51495
760.10        66.75587
760.51        66.98932
760.93        67.14655
761.34        66.91207
761.76        67.03978
762.18        67.09178
762.59        67.29738
763.01        67.38019
763.42        67.37496
763.84        67.34557
764.26        67.30848
764.67        67.21651
765.09        67.10816
765.50        66.91431
765.92        66.72179
766.33        66.64455
766.75         66.6114
767.16        66.71138
767.58        66.52666
768.00        66.52968
768.41        66.64761
768.83        66.78001
769.24        66.88662
769.66        67.06825
770.07        67.25526
770.49        67.08617
770.90        66.72623
771.32        66.98949
771.73        67.74147
772.15        67.99184
772.56        67.69966
772.97        67.31941
773.39         66.9707
773.80        67.03014
774.22        66.89413
774.63         67.1066
775.05          67.354
775.46        67.52334
775.88        67.53412
776.29        67.45227
776.70        67.33659
777.12        67.28739
777.53        67.34443
777.95        67.43598
778.36        67.53259
778.77        67.55035
779.19        67.48993
779.60        67.40413
780.02        67.30636
780.43        67.27753
780.84         67.3538
781.26        67.27403
781.67        67.14861
782.09        67.64871
782.50        68.53458
782.91        68.58845
783.33        67.87818
783.74        67.60966
784.15        67.83898
784.57        67.86707
784.98        67.71637
785.39        67.72598
785.81         67.9025
786.22          68.186
786.63        68.48586
787.04        68.59978
787.46         68.5364
787.87        68.43799
788.28        68.38533
788.70        68.37582
789.11        68.40382
789.52        68.54688
789.93        68.72645
790.35        68.70693
790.76        68.50497
791.17        68.32426
791.58        68.21102
792.00        68.06717
792.41        67.92798
792.82        67.90369
793.23        67.97888
793.65        67.97166
794.06        67.92618
794.47        68.12881
794.88         68.4924
795.29        68.63637
795.71        68.49954
796.12        68.36129
796.53        68.30034
796.94        68.20789
797.35        68.19515
797.76        68.66149
798.18        69.39746
798.59        69.71164
799.00        69.48944
799.41        69.06863
799.82         68.6272
800.23        68.33875
800.64        68.28097
801.06        68.37071
801.47        68.55388
801.88          68.645
802.29        68.58602
802.70        68.43774
803.11        68.24506
803.52        68.07439
803.93        67.97305
804.34        67.92574
804.75        67.94243
805.17        68.09998
805.58        68.43734
805.99        68.69492
806.40        68.87373
806.81        69.47916
807.22        70.24063
807.63        70.00325
808.04         68.9427
808.45        68.36685
808.86        68.40491
809.27        68.37949
809.68        68.21152
810.09        68.09739
810.50        68.02931
810.91        67.95982
811.32        67.98539
811.73        68.25396
812.14        68.76735
812.55        69.46413
812.96        70.13228
813.37        70.37823
813.78        70.10131
814.19        69.45544
814.60        68.66358
815.01        68.02486
815.42        67.62352
815.83        67.37939
816.24        67.29991
816.65        67.39007
817.05        67.63138
817.46         68.0065
817.87        68.41496
818.28        68.64526
818.69        68.65387
819.10        68.46203
819.51        68.21521
819.92        68.19832
820.33          68.478
820.74        68.95776
821.14        69.46061
821.55        69.69791
821.96        69.60096
822.37        69.26765
822.78        68.83183
823.19        68.51681
823.60          68.404
824.00        68.45264
824.41        68.56276
824.82        68.67046
825.23        68.73124
825.64        68.77562
826.04        68.81145
826.45        68.80247
826.86        68.76286
827.27        68.70186
827.68        68.62057
828.08        68.55746
828.49         68.4754
828.90        68.37985
829.31        68.33305
829.72        68.43534
830.12        68.71605
830.53        69.09057
830.94        69.41254
831.35        69.38572
831.75        68.97016
832.16        68.24766
832.57        67.46813
832.97        67.00575
833.38        66.96048
833.79        67.20466
834.20        67.61208
834.60        67.97398
835.01        68.21844
835.42        68.45257
835.82        68.65151
836.23        68.69253
836.64        68.59767
837.04        68.34164
837.45        68.14269
837.86        68.43285
838.26        69.29488
838.67        70.56676
839.08        71.79798
839.48        72.13744
839.89        71.38484
840.29        69.85717
840.70        68.23725
841.11        67.32137
841.51        67.31146
841.92        67.95863
842.33         68.9647
842.73        69.78623
843.14        70.10909
843.54        70.14182
843.95         70.0378
844.35        70.09727
844.76        70.37686
845.17        70.74634
845.57        71.06536
845.98        71.10484
846.38        70.83706
846.79        70.35105
847.19        69.80804
847.60        69.42657
848.00         69.2869
848.41        69.30812
848.81         69.4265
849.22        69.44838
849.62        69.36404
850.03        69.22573
850.43        69.10813
850.84        69.05793
851.24        69.13848
851.65        69.25205
852.05        69.47822
852.46         69.8435
852.86        70.31121
853.27         70.8411
853.67        71.22499
854.07        71.29655
854.48        71.01485
854.88        70.46796
855.29        69.75745
855.69        69.21623
856.10        68.89909
856.50        68.80954
856.90        68.85624
857.31        68.89179
857.71        68.90877
858.12        68.88312
858.52         68.8642
858.92        68.81139
859.33         68.7097
859.73        68.61745
860.13        68.47797
860.54        68.23419
860.94        67.94051
861.34        67.60037
861.75        67.37281
862.15        67.55682
862.55         68.1646
862.96        69.05592
863.36        69.99412
863.76        70.48619
864.17        70.38422
864.57        69.86849
864.97        69.09659
865.38        68.33799
865.78        67.73212
866.18        67.19712
866.58        66.83372
866.99        66.80699
867.39        67.15137
867.79        67.83813
868.19        68.61391
868.60        69.05038
869.00        69.07745
869.40        68.73579
869.80        68.28149
870.21        68.22621
870.61        68.74828
871.01        69.61214
871.41        70.40557
871.81        70.55392
872.22        69.96349
872.62        68.82999
873.02        67.56368
873.42        66.86091
873.82        66.93232
874.22        67.56586
874.63        68.39875
875.03        68.86971
875.43        68.79835
875.83         68.3588
876.23        67.78936
876.63        67.44882
877.03        67.44065
877.44        67.62392
877.84        67.84718
878.24        67.88648
878.64        67.64588
879.04        67.08944
879.44        66.49405
879.84        66.36541
880.24        66.75314
880.64        67.45937
881.04        68.11582
881.44        68.14809
881.84        67.44118
882.24        66.21019
882.65        64.89899
883.05        64.18777
883.45        64.25783
883.85        64.91723
884.25        65.85661
884.65        66.53901
885.05        66.78238
885.45        66.74129
885.85        66.59413
886.25        66.61536
886.65        66.87481
887.05        67.25072
887.45        67.61999
887.85        67.80565
888.25        67.75257
888.65        67.53594
889.04        67.24156
889.44        67.01634
889.84        66.89395
890.24        66.83944
890.64        66.81021
891.04        66.74096
891.44        66.61939
891.84        66.48281
892.24        66.37405
892.64        66.34213
893.04         66.4075
893.44        66.56887
893.83        66.80665
894.23        67.03761
894.63        67.25012
895.03        67.41924
895.43        67.60774
895.83        67.92905
896.23        68.36929
896.63        68.86698
897.02        69.20898
897.42        69.08912
897.82        68.47817
898.22        67.53684
898.62        66.53111
899.01        65.84484
899.41        65.59583
899.81        65.65308
900.21        65.92216
900.61         66.2381
901.00        66.51411
901.40        66.79063
901.80        66.98328
902.20        66.95058
902.59        66.69391
902.99         66.2383
903.39        65.73833
903.79        65.46354
904.18        65.46841
904.58        65.67134
904.98        65.98615
905.38        66.27894
905.77        66.50117
906.17        66.72228
906.57        66.85332
906.96        66.74987
907.36         66.4002
907.76        65.85536
908.15        65.39145
908.55        65.43236
908.95        66.05325
909.34        67.12173
909.74        68.24772
910.14        68.86585
910.53        68.78802
910.93        68.20919
911.33        67.34862
911.72        66.54153
912.12        65.98912
912.52        65.61527
912.91        65.41075
913.31        65.38004
913.70        65.50526
914.10        65.76408
914.49        66.20363
914.89        66.79188
915.29        67.49332
915.68        68.27734
916.08        68.87922
916.47        68.95739
916.87         68.4828
917.26        67.56071
917.66        66.59723
918.05        66.06232
918.45         66.0698
918.84        66.53365
919.24        67.16605
919.64        67.57841
920.03        67.65023
920.42        67.46374
920.82        67.23406
921.21        67.24387
921.61        67.53386
922.00        68.01786
922.40        68.47264
922.79        68.66982
923.19        68.51176
923.58         68.1334
923.98         67.6676
924.37        67.23226
924.77        66.89808
925.16        66.58242
925.55         66.3656
925.95        66.36694
926.34        66.60134
926.74        67.01866
927.13        67.38049
927.52        67.23402
927.92        66.56882
928.31        65.53481
928.70        64.49998
929.10         64.0027
929.49         64.1492
929.89        64.71254
930.28        65.56052
930.67        66.34184
931.07        66.86558
931.46        67.30282
931.85        67.46442
932.24        67.09653
932.64        66.27365
933.03        65.06792
933.42        63.97829
933.82        63.74137
934.21        64.48001
934.60        66.00829
934.99         67.8318
935.39        69.02161
935.78        69.30791
936.17         68.8562
936.56        67.99075
936.96        67.24266
937.35        66.79317
937.74        66.48298
938.13        66.20605
938.53        65.83989
938.92        65.36687
939.31        64.90837
939.70        64.52948
940.09        64.26318
940.49        64.09594
940.88         64.0298
941.27        64.09787
941.66        64.35426
942.05        64.79317
942.44        65.39425
942.84        66.04518
943.23        66.56559
943.62        66.90966
944.01        67.07085
944.40        67.17028
944.79        67.43896
945.18        67.89355
945.57        68.43127
945.97        68.78127
946.36        68.60136
946.75        67.80695
947.14        66.63332
947.53        65.35845
947.92        64.34092
948.31        63.70804
948.70        63.37738
949.09        63.39139
949.48        63.80874
949.87        64.57999
950.26        65.65346
950.65        66.79363
951.04        67.60889
951.43        67.96314
951.82        67.90735
952.21        67.56438
952.60         67.1805
952.99        66.87698
953.38        66.63749
953.77        66.46609
954.16        66.36489
954.55        66.31719
954.94        66.29427
955.33        66.36452
955.72         66.6183
956.11        67.03139
956.50        67.58229
956.89        67.92222
957.28        67.48756
957.66        66.22989
958.05        64.43528
958.44        62.71252
958.83         61.9249
959.22        62.22775
959.61        63.36723
960.00        64.88757
960.39        65.90694
960.78         66.0944
961.16        65.69105
961.55          65.025
961.94        64.51328
962.33        64.30579
962.72        64.27946
963.11        64.37699
963.49        64.55362
963.88        64.69598
964.27        64.83635
964.66        65.06188
965.04        65.51988
965.43        66.15202
965.82        66.92768
966.21        67.48891
966.60        67.19765
966.98         65.9491
967.37        64.11122
967.76        62.27847
968.15        61.16058
968.53        60.89576
968.92        61.30619
969.31        62.13525
969.69        62.84065
970.08        63.12614
970.47        63.15575
970.86        63.15977
971.24        63.50183
971.63        64.25769
972.02         65.2593
972.40        66.27668
972.79        66.64461
973.17        66.24792
973.56        65.35139
973.95        64.28063
974.33        63.41346
974.72        62.86221
975.11        62.48597
975.49        62.34201
975.88        62.47284
976.26         62.9005
976.65         63.5764
977.04        64.24504
977.42        64.45905
977.81        64.11382
978.19        63.32583
978.58        62.52606
978.96        62.39577
979.35        63.06827
979.74        64.34404
980.12        65.89745
980.51        66.88972
980.89        67.17371
981.28        66.98107
981.66        66.57169
982.05        66.29787
982.43        66.29378
982.82         66.3833
983.20        66.75065
983.59        67.63485
983.97        69.08372
984.35        70.98251
984.74        72.65334
985.12        73.19106
985.51        72.32193
985.89        70.36895
986.28        68.10355
986.66        66.59669
987.04        66.20815
987.43        66.66557
987.81        67.59196
988.20        68.11702
988.58        67.96372
988.96        67.30208
989.35        66.55861
989.73        66.33293
990.12        66.71413
990.50        67.53847
990.88        68.22105
991.27        67.79779
991.65        66.15516
992.03        63.74867
992.42        61.51905
992.80        60.70024
993.18        61.54934
993.56        63.71987
993.95        66.46394
994.33        68.45921
994.71        69.02707
995.10        68.61028
995.48        67.68387
995.86        67.08746
996.24        67.05659
996.63        67.12939
997.01        67.36334
997.39        67.57939
997.77        67.66265
998.15        67.86639
998.54        67.86503
998.92        66.96779
999.30        65.26765
999.68        63.01825
1000.06        61.14822
1000.45         60.9729
1000.83         62.8257
1001.21        66.45455
1001.59        70.91595
1001.97        73.82864
1002.35        74.20152
1002.73        72.72379
1003.12        70.65658
1003.50        69.60309
1003.88        70.07668
1004.26        71.44363
1004.64        73.42962
1005.02        75.40971
1005.40        76.88273
1005.78         78.1479
1006.16        78.55618
1006.54        77.04056
1006.92        73.75867
1007.30        69.25346
1007.69        64.97472
1008.07        62.81305
1008.45        63.28254
1008.83        65.85197
1009.21        69.74655
1009.59        72.83983
1009.97         73.8726
1010.35        73.42487
1010.73        71.50566
1011.11        68.22437
1011.49        64.18481
1011.86        59.65763
1012.24        55.87399
1012.62        54.45538
1013.00        55.63894
1013.38        59.15121
1013.76        64.21131
1014.14        68.43443
1014.52        70.40977
1014.90        70.47514
1015.28        69.30621
1015.66        68.13671
1016.04        67.38646
1016.41        66.65422
1016.79        65.87431
1017.17        65.14596
1017.55        64.50697
1017.93        64.09895
1018.31        63.95678
1018.69        63.95816
1019.06        64.10526
1019.44        64.51192
1019.82         64.9296
1020.20        64.87402
1020.58          64.189
1020.95        62.81552
1021.33        61.72564
1021.71        62.00276
1022.09        63.83213
1022.46        67.41734
1022.84        71.30091
1023.22        71.96992
1023.60        68.34562
1023.97        61.51396
1024.35        55.32599
1024.73        54.25854
