SpectraSmart Spectrum 2.9.0.0
--------- Device Information -----------
Spectrum Name :  反射率_0
Saving Time :  2024/04/27 00:36:05
Spectro-Module Model Name : SE2030-DUVN
Spectro-Module Serial Number : OS361AC55029948
Wavelength Start : 200
Wavelength End : 1025
Wavelength Unit : Wavelength(nm)
Spectrum Unit : Reflectance(%)
-----------Spectrum Setting ------------
Integration Time : 20ms
Average : 10
Boxcar : 0
Background removal :  enabled
linearity correction :  enabled
SC :  disabled
Intensity correction :  disabled
DWT denoise :  enabled
savitzky-golay :  disabled
FFT :  disabled
Running average :  disabled
Kalman :  disabled
High pass :  disabled
---------------BEGIN--------------------
Wavelength(nm)             Reflectance(%)
200.29               0
200.75        36.31056
201.21        35.29545
201.67        34.16467
202.13        32.92098
202.58        31.46354
203.04        29.73901
203.50        28.32065
203.96         29.0323
204.42        32.87589
204.88        39.46455
205.34        46.70354
205.80        50.74961
206.26        50.45418
206.72        47.02269
207.18        42.61697
207.64        38.85184
208.10        35.65716
208.55        32.47525
209.01         28.6298
209.47        25.52573
209.93        24.96564
210.39        26.43012
210.85        28.80049
211.31        32.09513
211.77        37.50377
212.23        48.39773
212.69        74.57769
213.14        119.3236
213.60        118.1037
214.06        86.97934
214.52        64.68917
214.98        52.48674
215.44        44.29929
215.90        36.62796
216.36        30.06149
216.81        26.15692
217.27        25.78842
217.73        29.81848
218.19        37.17272
218.65        40.24585
219.11        36.20561
219.57        29.56918
220.02         25.9899
220.48        29.02727
220.94        38.91304
221.40        57.15211
221.86        82.70943
222.32        97.63816
222.77        87.91137
223.23          66.134
223.69        46.36571
224.15        36.27806
224.61        33.78687
225.06        34.75165
225.52        36.98178
225.98        38.39433
226.44        38.69938
226.90        38.79131
227.36        38.78823
227.81        38.70048
228.27        38.62663
228.73        38.17498
229.19         37.7607
229.65        37.98424
230.10        38.82402
230.56        40.25202
231.02         41.3667
231.48        40.73798
231.93        38.36948
232.39        35.17817
232.85        32.53731
233.31         32.2582
233.77        34.40361
234.22        38.28452
234.68        42.65626
235.14         45.6394
235.60        46.66778
236.05        46.29274
236.51        45.04057
236.97        44.10645
237.43        44.07501
237.88        44.57332
238.34        45.60293
238.80        47.46404
239.26        50.35973
239.71        55.12228
240.17        61.21208
240.63        66.63815
241.08        69.99019
241.54        70.27125
242.00        69.65511
242.46        73.61151
242.91        85.97618
243.37        109.1769
243.83        143.4926
244.28        171.2234
244.74        168.3713
245.20        137.2832
245.66        100.8957
246.11        78.62898
246.57         71.0159
247.03        71.72256
247.48        77.11935
247.94         81.0024
248.40        81.37268
248.85        80.50219
249.31        79.58401
249.77        78.48149
250.22        76.91204
250.68        74.09208
251.14        69.80645
251.59        65.37513
252.05        62.83199
252.51        62.90342
252.96        63.96951
253.42        64.45042
253.88        64.17411
254.33        63.21304
254.79        63.69339
255.25         67.2345
255.70        73.33027
256.16        81.11478
256.62        87.14635
257.07        86.42304
257.53        80.84028
257.99        73.86811
258.44        68.12493
258.90        65.97775
259.35        66.23527
259.81        67.94971
260.27         69.7461
260.72        70.04705
261.18        69.00384
261.63        67.03052
262.09        65.15026
262.55        63.85023
263.00        63.02919
263.46        62.58673
263.91        61.93665
264.37        60.73145
264.83        58.95798
265.28         56.8321
265.74        54.95267
266.19        53.70964
266.65        53.19064
267.11         53.1022
267.56        53.08855
268.02        52.60472
268.47        51.52598
268.93        50.09348
269.38        48.50777
269.84        47.13221
270.30        46.05533
270.75        45.13836
271.21         44.3945
271.66        43.78562
272.12        43.26786
272.57        42.82606
273.03        42.31576
273.48        41.48693
273.94        40.37301
274.39        39.03882
274.85        37.74597
275.31        36.71186
275.76        35.96402
276.22        35.47277
276.67        35.10243
277.13        34.75271
277.58         34.3302
278.04         33.8814
278.49        33.39776
278.95        32.98718
279.40        32.60304
279.86        32.27813
280.31        31.86769
280.77         31.2836
281.22        30.50366
281.68        29.65768
282.13        28.87925
282.59        28.43337
283.04        28.31597
283.50        28.45807
283.95        28.70291
284.41        28.80796
284.86        28.70877
285.32        28.51693
285.77        28.30628
286.22        28.24851
286.68        28.37455
287.13         28.5691
287.59        28.81637
288.04        29.05085
288.50        29.25961
288.95        29.43864
289.41        29.54045
289.86        29.41912
290.32        29.12467
290.77        28.70991
291.22        28.36209
291.68         28.3425
292.13        28.70015
292.59        29.38837
293.04        30.28611
293.50        31.20934
293.95        32.09153
294.40        32.99366
294.86        33.97961
295.31        35.13703
295.77        36.49488
296.22        37.99377
296.68        39.59468
297.13        41.23158
297.58        42.89276
298.04        44.59715
298.49         46.3605
298.95        48.22567
299.40        50.17307
299.85         52.1756
300.31        54.18851
300.76        56.12382
301.21        57.97767
301.67        59.80135
302.12        61.59439
302.58        63.45261
303.03        65.34334
303.48         67.2558
303.94        69.21804
304.39        71.19805
304.84        73.21268
305.30        75.28759
305.75        77.30493
306.20        79.17879
306.66        80.91588
307.11        82.50249
307.57        84.06885
308.02          85.702
308.47          87.438
308.93        89.23089
309.38        90.97215
309.83        92.62135
310.29        94.16322
310.74        95.61626
311.19        96.93298
311.65        98.00703
312.10        98.81048
312.55        99.36492
313.00         99.8468
313.46        100.5396
313.91        101.4754
314.36        102.6145
314.82        103.7456
315.27         104.533
315.72        104.8816
316.18        104.9257
316.63        104.8626
317.08        105.0534
317.53        105.5888
317.99        106.3475
318.44         107.173
318.89        107.7786
319.35        108.0749
319.80        108.1524
320.25        108.1351
320.70        108.2193
321.16        108.4623
321.61        108.8491
322.06        109.2642
322.51        109.5348
322.97        109.6074
323.42        109.5392
323.87        109.5153
324.32        109.8544
324.78        110.5697
325.23        111.6356
325.68         112.665
326.13        113.0253
326.59        112.5779
327.04        111.5573
327.49        110.4296
327.94        109.9598
328.39        110.3408
328.85        111.3182
329.30        112.6413
329.75        113.5794
330.20        113.8834
330.66        113.7379
331.11        113.4408
331.56         113.391
332.01        113.7244
332.46          114.27
332.92         114.854
333.37        115.3769
333.82         115.713
334.27        115.9724
334.72        116.1681
335.17        116.2877
335.63        116.3582
336.08        116.4463
336.53        116.6713
336.98        117.2856
337.43        118.3203
337.88        119.6569
338.34        121.0918
338.79        122.4023
339.24        123.4061
339.69        124.1598
340.14        124.5812
340.59        124.5718
341.05        124.2158
341.50        123.5721
341.95        122.9681
342.40         122.903
342.85        123.4837
343.30        124.5721
343.75        125.8981
344.20        126.9835
344.66        127.6638
345.11        128.0545
345.56        128.2328
346.01        128.3415
346.46        128.4601
346.91        128.5483
347.36        128.6445
347.81        128.8358
348.26         129.122
348.72        129.4656
349.17        129.8416
349.62        130.2348
350.07        130.6097
350.52        130.9866
350.97         131.176
351.42        130.8847
351.87         130.112
352.32        128.9795
352.77        127.8885
353.22        127.4222
353.67        127.6817
354.13        128.4906
354.58        129.4573
355.03         129.873
355.48        129.5373
355.93        128.6407
356.38        127.5724
356.83        126.9255
357.28        126.8207
357.73        127.0531
358.18        127.2624
358.63        126.8854
359.08        125.8061
359.53         124.249
359.98        122.5806
360.43        121.3168
360.88        120.5694
361.33         120.171
361.78        119.8566
362.23        119.2129
362.68        118.1516
363.13        116.8397
363.58        115.4879
364.03        114.4018
364.48        113.6511
364.93        113.1061
365.38        112.6522
365.83        112.1241
366.28        111.4591
366.73        110.7184
367.18        109.9015
367.63         108.994
368.08         108.016
368.53        106.9784
368.98        105.9502
369.43        105.0451
369.88        104.2936
370.33        103.6725
370.78         103.141
371.23        102.6289
371.68        102.0999
372.13        101.5514
372.58        100.9826
373.03        100.3943
373.48        99.77531
373.93        99.11513
374.38         98.3727
374.83         97.4983
375.28        96.50917
375.72        95.42992
376.17        94.41459
376.62        93.57064
377.07        92.93487
377.52         92.4908
377.97         92.1666
378.42        91.85294
378.87        91.50671
379.32        91.11471
379.77        90.75728
380.22        90.55503
380.67        90.49912
381.11        90.57304
381.56        90.49929
382.01        89.93531
382.46        88.87315
382.91        87.50358
383.36        86.20096
383.81        85.46523
384.26        85.36459
384.71        85.72305
385.15        86.27777
385.60        86.56332
386.05        86.42899
386.50        85.99955
386.95        85.38044
387.40         84.7464
387.85        84.17745
388.29        83.57993
388.74         83.0695
389.19        82.58915
389.64        82.13856
390.09        81.74769
390.54        81.42448
390.98        81.14948
391.43         80.9383
391.88        80.75101
392.33        80.59473
392.78        80.37333
393.23        80.05614
393.67         79.9446
394.12        79.98782
394.57        79.23244
395.02        78.01629
395.47        78.00841
395.91        79.02351
396.36        79.22818
396.81        78.53124
397.26        77.97228
397.71        77.65491
398.15        77.28283
398.60        76.97472
399.05        76.68172
399.50        76.42011
399.95        76.33764
400.39        76.38039
400.84        76.20568
401.29        75.81153
401.74        75.46933
402.18        75.19704
402.63        74.77081
403.08        74.30869
403.53        74.08372
403.97          74.113
404.42        74.29877
404.87        74.50627
405.32        74.51068
405.76        74.25472
406.21        73.89946
406.66        73.52121
407.11        73.16615
407.55        72.97215
408.00        73.00802
408.45        73.22067
408.90        73.57185
409.34        73.80637
409.79         73.3101
410.24        72.33237
410.68        71.84436
411.13        71.93371
411.58        72.06892
412.03        72.11677
412.47        72.09991
412.92         71.9481
413.37          71.692
413.81        71.41314
414.26        71.29613
414.71        71.34499
415.15        71.53695
415.60        71.75641
416.05        71.88517
416.49        71.88882
416.94        71.79755
417.39        71.68536
417.83        71.64854
418.28        71.71623
418.73        71.85126
419.17         72.0069
419.62        72.11359
420.07        72.13596
420.51        72.07221
420.96        71.98029
421.41        71.85558
421.85        71.68686
422.30        71.64871
422.74        71.62319
423.19          71.331
423.64        70.83373
424.08        70.65372
424.53        70.82439
424.98        70.94883
425.42          71.005
425.87        71.40319
426.31        71.95134
426.76        71.71838
427.21           70.88
427.65        70.63435
428.10        70.98396
428.54        71.11478
428.99        71.06609
429.44        71.00595
429.88        71.06151
430.33         71.7766
430.77        72.75636
431.22        73.03626
431.66        72.56761
432.11        71.83932
432.56        71.17364
433.00        71.07697
433.45         71.7269
433.89        72.42062
434.34        72.46199
434.78        73.44001
435.23        73.36005
435.67        70.18781
436.12        71.16304
436.57        71.10993
437.01        71.95648
437.46        72.21894
437.90        71.90786
438.35         71.1328
438.79        71.26928
439.24        71.19396
439.68        71.26163
440.13        71.60152
440.57         72.1573
441.02        72.27769
441.46        72.01826
441.91        72.65488
442.35        73.72529
442.80        73.40632
443.24        72.00559
443.69        71.84795
444.13        72.85585
444.58        73.20641
445.02        72.84431
445.47        72.79591
445.91        73.09572
446.36        73.33304
446.80        73.47363
447.24        73.68356
447.69        73.91135
448.13        73.89411
448.58        73.71814
449.02        73.74625
449.47         73.9571
449.91        73.96965
450.36        73.79939
450.80          73.645
451.25        73.57283
451.69        73.52565
452.13        73.52907
452.58        73.59132
453.02          73.673
453.47        73.71619
453.91        73.68598
454.36        73.60616
454.80        73.52438
455.24        73.30685
455.69        72.94184
456.13        72.86564
456.58        73.15649
457.02        71.95528
457.46        71.85319
457.91         71.8744
458.35        72.46515
458.79        72.44667
459.24        71.83739
459.68        71.15498
460.13        70.60218
460.57        70.36646
461.01        70.56763
461.46        70.72023
461.90         70.6338
462.34        71.98195
462.79        71.40991
463.23        71.75317
463.68         71.8853
464.12        71.69163
464.56        71.14849
465.01        70.28411
465.45        69.41382
465.89        69.29038
466.34        69.72044
466.78        70.06208
467.22        70.29165
467.67        69.23411
468.11        69.49801
468.55        69.44617
468.99        69.72528
469.44        69.66451
469.88        69.26787
470.32        68.92683
470.77        68.71214
471.21        68.59298
471.65        68.57265
472.10         68.6665
472.54        68.80549
472.98        68.83366
473.42          68.702
473.87        68.62669
474.31        68.54607
474.75        68.04782
475.20        67.35678
475.64        67.34719
476.08        67.92287
476.52        68.02094
476.97        67.55991
477.41        67.47343
477.85        67.49533
478.29         67.0098
478.74        67.99506
479.18        67.93888
479.62        67.58876
480.06        67.42506
480.50        67.43758
480.95         67.6698
481.39        68.12305
481.83        67.12854
482.27        67.42247
482.72        67.59631
483.16        67.22848
483.60        67.02518
484.04        67.22447
484.48        67.61559
484.93        68.03481
485.37        67.88335
485.81        66.73791
486.25        66.83809
486.69        69.19514
487.14        70.14173
487.58        67.35443
488.02        67.68172
488.46         66.3689
488.90        66.48654
489.34        67.63654
489.79        68.13849
490.23        67.82153
490.67        67.07777
491.11        66.24067
491.55        66.15543
491.99        66.71856
492.43        66.77285
492.88        66.28722
493.32        66.10986
493.76        66.27604
494.20        66.36909
494.64        66.36301
495.08        66.40836
495.52        66.47394
495.96         66.4225
496.41        66.27566
496.85        66.24835
497.29         66.2262
497.73         66.2313
498.17        65.49748
498.61        65.44102
499.05        65.79548
499.49         66.0115
499.93        65.77788
500.37         65.8539
500.82        66.21217
501.26        65.69956
501.70        65.90495
502.14        65.92804
502.58        66.18128
503.02         66.2816
503.46        66.21346
503.90        66.15487
504.34        66.08917
504.78        65.94518
505.22          65.731
505.66        65.48666
506.10        65.28049
506.54        65.14687
506.98        65.08604
507.42        65.20084
507.86        65.48706
508.30        65.22923
508.74        65.53343
509.18        65.50129
509.62        65.46819
510.06        65.41125
510.50         65.3448
510.94        65.25099
511.38        65.14938
511.82        65.10603
512.26        65.12945
512.70        65.20917
513.14        65.30465
513.58         65.3453
514.02        65.31947
514.46        65.24823
514.90        65.17329
515.34        65.18478
515.78        65.29705
516.22        65.41056
516.66        65.49317
517.10        65.63789
517.54        65.76042
517.98        65.57042
518.42        65.14009
518.86        64.86707
519.30        64.79729
519.74        64.72141
520.18        64.65204
520.62        64.69119
521.06        64.83224
521.50        65.05285
521.93        65.27963
522.37        65.36707
522.81        65.29467
523.25        65.09908
523.69        64.88097
524.13        64.80197
524.57        64.89248
525.01        65.09452
525.45        65.31556
525.89        65.40427
526.32        65.31539
526.76        65.12397
527.20        64.88198
527.64        64.67402
528.08        64.53402
528.52        64.43372
528.96        64.38516
529.40        64.40942
529.83        64.49561
530.27        64.64452
530.71        64.79591
531.15         64.8565
531.59        64.80729
532.03        64.67074
532.46        64.49258
532.90        64.39478
533.34        64.39359
533.78          64.419
534.22        64.43796
534.66        64.47882
535.09        64.48103
535.53        64.31537
535.97         64.0296
536.41        63.86414
536.85        63.84642
537.28        63.85199
537.72        63.88063
538.16        63.98168
538.60        64.14106
539.04        64.33967
539.47        64.51476
539.91        64.61202
540.35        64.60506
540.79        64.51505
541.22        64.38623
541.66        64.31232
542.10        64.31142
542.54        64.36194
542.97         64.4202
543.41        64.44732
543.85        64.41729
544.29        64.35022
544.72        64.26556
545.16        64.20922
545.60        64.18065
546.04         64.2387
546.47        64.34724
546.91         64.3175
547.35        64.20985
547.79        64.29845
548.22        64.54908
548.66        64.76631
549.10        64.92641
549.53        64.84461
549.97         64.5894
550.41        64.33858
550.84        64.18373
551.28        64.16544
551.72        64.23532
552.15        64.24707
552.59        64.32918
553.03        64.03555
553.46         64.4087
553.90        64.31625
554.34        64.34815
554.77        64.27712
555.21        64.24793
555.65        64.29052
556.08        64.38745
556.52        64.53833
556.96        64.65411
557.39        64.62935
557.83        64.47592
558.27        64.20518
558.70        63.88624
559.14        63.75326
559.57        63.79189
560.01        63.75377
560.45         63.6729
560.88        63.88673
561.32        64.30431
561.75        64.44946
562.19        64.32843
562.63        64.10751
563.06        63.89883
563.50        63.97584
563.93         64.2168
564.37        64.27299
564.80        64.15888
565.24        63.99675
565.68        63.68362
566.11        64.34197
566.55        63.67773
566.98        63.51977
567.42        63.35509
567.85        63.65112
568.29        64.30619
568.72        64.69777
569.16        64.86507
569.60        65.01915
570.03        65.13165
570.47         65.2781
570.90        65.56022
571.34        64.69215
571.77        65.41268
572.21        65.59961
572.64        65.63074
573.08         65.9227
573.51        65.12376
573.95        65.19498
574.38        65.83457
574.82        65.96924
575.25         65.5392
575.69        65.65287
576.12        65.50453
576.56        64.90843
576.99        65.16377
577.42        65.42332
577.86        65.33777
578.29        66.44877
578.73        66.17355
579.16         66.0767
579.60        65.51888
580.03        65.56004
580.47        65.28017
580.90        66.26609
581.33        66.19161
581.77        66.29379
582.20        66.42945
582.64        66.95689
583.07        66.38061
583.51        65.91295
583.94         65.3723
584.37        65.23154
584.81        65.65292
585.24        65.78517
585.68        65.77396
586.11        66.21208
586.54        65.92246
586.98        65.03548
587.41        64.46889
587.85        65.33629
588.28        65.37962
588.71        65.13255
589.15        64.92165
589.58        65.02415
590.01        64.33067
590.45        64.62067
590.88        65.33043
591.31        65.33895
591.75        64.69261
592.18        64.33166
592.61        64.53269
593.05        64.85907
593.48        65.96379
593.91        65.95179
594.35        65.42857
594.78        64.56144
595.21        64.18375
595.65        64.55721
596.08        65.79587
596.51        65.62963
596.94        64.98975
597.38        64.64088
597.81        64.87552
598.24        65.19712
598.68        65.06382
599.11        64.46034
599.54        66.00206
599.97        65.61107
600.41        65.12331
600.84        64.53416
601.27        65.09679
601.70        64.99391
602.14        65.16567
602.57        64.90117
603.00         64.6865
603.43        64.16751
603.87        65.09448
604.30        65.39281
604.73        65.33525
605.16        64.30573
605.60        64.04836
606.03        63.78173
606.46        63.96111
606.89        64.11629
607.32          64.501
607.76        64.23282
608.19        64.57687
608.62        64.49842
609.05        64.20462
609.48        64.22193
609.92        65.31456
610.35        64.80259
610.78         64.4426
611.21        64.33389
611.64        64.33712
612.07        64.66351
612.50        64.52901
612.94        64.45885
613.37        64.18566
613.80        64.36571
614.23        63.60464
614.66        63.40704
615.09        64.05676
615.52        64.17577
615.96        63.84702
616.39        64.20752
616.82        64.25156
617.25        63.72295
617.68        63.59599
618.11        63.80328
618.54         64.4874
618.97        64.57619
619.40        64.16017
619.84        63.59532
620.27        63.92112
620.70        63.92727
621.13        63.89187
621.56         63.3161
621.99        62.65482
622.42        62.64515
622.85         63.4233
623.28        62.55303
623.71        63.03212
624.14        63.64622
624.57        63.49052
625.00         63.4973
625.43        63.61844
625.86        63.55457
626.29        63.47468
626.72        63.06828
627.15        63.19554
627.58        63.23274
628.01        63.30892
628.44         63.4456
628.87        63.29129
629.30        62.90302
629.73        62.97844
630.16        62.99585
630.59        63.15431
631.02        63.29407
631.45        63.38742
631.88        63.48874
632.31        63.56639
632.74        63.55079
633.17        63.44626
633.60        63.30291
634.03         63.1369
634.46        62.97001
634.89        62.80793
635.32        62.59807
635.75        62.39364
636.18        62.30377
636.61        62.34377
637.04        62.41627
637.47        62.50939
637.89         62.6915
638.32        62.87892
638.75        62.94677
639.18        62.87233
639.61        62.69259
640.04        62.48619
640.47        62.38118
640.90        62.41179
641.33        62.54425
641.76        62.71865
642.18        62.84215
642.61        62.86375
643.04        62.81508
643.47        62.74176
643.90        62.72396
644.33        62.77594
644.76         62.8573
645.18        62.91252
645.61        62.89137
646.04        62.70919
646.47        62.48916
646.90        62.27067
647.33         62.1747
647.75        62.20405
648.18        62.28321
648.61        62.44335
649.04        62.68082
649.47        62.80945
649.89        63.42745
650.32        62.84554
650.75        62.56292
651.18        62.26138
651.61        62.31041
652.03        62.69392
652.46        62.98782
652.89        63.05324
653.32        63.10911
653.74        63.01502
654.17        62.52828
654.60        62.87762
655.03        63.05162
655.46        62.32871
655.88        62.72757
656.31         66.7095
656.74        70.56535
657.16        69.32796
657.59        67.94353
658.02        64.64362
658.45        64.12518
658.87        63.21893
659.30        63.09308
659.73        62.39455
660.15         63.5235
660.58        62.47646
661.01        62.61237
661.44        62.73047
661.86        62.49984
662.29        61.92422
662.72        62.13876
663.14        62.00566
663.57        62.08894
664.00        62.07484
664.42        62.23774
664.85        62.56459
665.27        62.91558
665.70        63.16726
666.13        63.24219
666.55        63.12289
666.98        62.76479
667.41         62.2656
667.83        62.19822
668.26        61.96405
668.69        62.03688
669.11        62.19059
669.54        62.34355
669.96        62.46181
670.39        62.63374
670.82         62.8326
671.24        62.82467
671.67        62.67819
672.09        62.73629
672.52        62.97612
672.94         63.0624
673.37        62.96554
673.80        62.78967
674.22        62.59805
674.65        62.45897
675.07        62.41421
675.50        62.40277
675.92        62.40282
676.35        62.39378
676.77        62.36632
677.20        62.32071
677.62        62.28323
678.05        62.29704
678.47        62.36419
678.90        62.46979
679.32        62.57129
679.75        62.61687
680.17        62.59104
680.60        62.51574
681.02         62.4301
681.45        62.39287
681.87        62.43367
682.30        62.51933
682.72        62.63589
683.15        62.74214
683.57        62.82419
684.00        62.83007
684.42        62.80762
684.85        62.88469
685.27        63.06278
685.70        63.29063
686.12        63.47843
686.54        63.53395
686.97        63.43716
687.39         63.1897
687.82        62.88051
688.24        62.77741
688.66        62.87747
689.09        62.89179
689.51        62.81558
689.94        62.86776
690.36         63.0125
690.78         62.9795
691.21        62.81762
691.63        62.78802
692.06         62.9108
692.48        63.06805
692.90        63.18498
693.33        63.19192
693.75         63.0691
694.17        62.81967
694.60        62.55804
695.02        62.47913
695.44        62.59668
695.87         62.8497
696.29        63.13044
696.71        63.09883
697.14        62.81543
697.56        62.73497
697.98         62.8985
698.41        63.00037
698.83        63.03137
699.25        63.22994
699.68        63.47993
700.10        63.53086
700.52        63.33126
700.94        62.97366
701.37        62.61296
701.79        62.50288
702.21        62.69031
702.64        63.07616
703.06        63.51994
703.48        63.77522
703.90        63.76918
704.33        63.58012
704.75        63.29167
705.17        63.02985
705.59         62.8566
706.01         62.7411
706.44        62.69331
706.86        62.76324
707.28        62.93762
707.70        63.16133
708.12        63.41113
708.55          63.731
708.97        64.05037
709.39        64.13515
709.81        64.00299
710.23        63.92635
710.66        63.93096
711.08        63.87971
711.50        63.75722
711.92        63.62709
712.34        63.49943
712.76         63.3759
713.19        63.26578
713.61        63.21397
714.03        63.21635
714.45        63.27171
714.87        63.37317
715.29        63.50845
715.71        63.66201
716.13        63.81764
716.56        63.94838
716.98        64.08439
717.40         64.1834
717.82        64.27222
718.24        64.31958
718.66        64.12272
719.08        63.94117
719.50         63.6255
719.92        63.34011
720.34        63.21373
720.76        63.27637
721.19        63.46077
721.61        63.74305
722.03        64.03783
722.45        64.29241
722.87        64.51504
723.29        64.64166
723.71        64.57502
724.13         64.3151
724.55        63.90092
724.97        63.45222
725.39          63.174
725.81        63.12503
726.23        63.23682
726.65        63.43341
727.07        63.72393
727.49        63.83509
727.91        63.98234
728.33        64.11694
728.75        64.27811
729.17        64.46452
729.59        64.64085
730.01         64.7824
730.43        64.85846
730.85        64.86135
731.27        64.80716
731.69        64.70589
732.10        64.57556
732.52         64.4397
732.94        64.28059
733.36        64.13811
733.78        64.06095
734.20        64.07188
734.62        63.95881
735.04        64.58849
735.46        64.08429
735.88        64.60219
736.30        64.69715
736.72        64.93888
737.13         65.1602
737.55        65.25769
737.97         65.4159
738.39        65.52497
738.81        65.04557
739.23        64.20482
739.65        64.15543
740.06        64.77913
740.48        64.98537
740.90        64.70711
741.32        64.59294
741.74        64.69991
742.16        64.78625
742.57        64.85411
742.99        64.94683
743.41        65.03355
743.83        65.05187
744.25        64.99194
744.67        64.85566
745.08         64.7105
745.50        64.64607
745.92        64.69543
746.34        64.83575
746.75        64.99404
747.17        65.03906
747.59        64.94987
748.01        64.76271
748.42        64.57879
748.84        64.55787
749.26        64.72675
749.68        65.02684
750.09        65.33341
750.51        65.44676
750.93        65.32402
751.35        65.05614
751.76         64.7262
752.18        64.45621
752.60        64.28591
753.01        64.20908
753.43        64.17889
753.85        64.13641
754.27        64.07807
754.68        64.05111
755.10        64.08099
755.52         64.1945
755.93        64.36974
756.35        64.56155
756.77        64.81592
757.18         65.0014
757.60        65.06787
758.02        65.49738
758.43        66.16093
758.85         65.0968
759.26        64.73832
759.68        64.30084
760.10        64.46008
760.51        64.87698
760.93        65.08041
761.34         64.7748
761.76        64.99953
762.18        65.03394
762.59        65.23925
763.01        65.32098
763.42        65.34739
763.84        65.39645
764.26        65.47275
764.67         65.5701
765.09        65.65765
765.50        65.44779
765.92        65.06741
766.33        64.91488
766.75        64.93038
767.16        64.88516
767.58        64.72997
768.00         64.5136
768.41        64.35798
768.83        64.71777
769.24        65.38159
769.66        65.45871
770.07         64.9987
770.49        64.66147
770.90        64.62962
771.32        65.05517
771.73        65.73521
772.15        65.95917
772.56        65.67869
772.97        65.16947
773.39        64.69251
773.80        64.78424
774.22        65.37057
774.63        65.78513
775.05        65.84512
775.46        65.90811
775.88        65.90804
776.29        65.58684
776.70        65.09194
777.12        64.86762
777.53        64.99749
777.95        65.30099
778.36        65.67853
778.77        65.92642
779.19        65.99604
779.60        65.98952
780.02        65.89284
780.43        65.75632
780.84        65.63329
781.26        65.21758
781.67        64.73972
782.09        65.21128
782.50        66.36757
782.91         66.6391
783.33        66.01757
783.74        65.82549
784.15        66.08598
784.57        65.99873
784.98        65.63611
785.39        65.47166
785.81         65.5676
786.22        65.87263
786.63        66.27017
787.04        66.49892
787.46        66.51652
787.87        66.40876
788.28        66.28897
788.70        66.25951
789.11        66.32569
789.52        66.54665
789.93         66.8059
790.35        66.73705
790.76        66.38187
791.17        66.17296
791.58        66.17912
792.00        66.04825
792.41        65.79296
792.82        65.92098
793.23        66.31653
793.65        65.94065
794.06         65.1109
794.47        65.54092
794.88        66.93617
795.29        67.44897
795.71        66.94598
796.12        66.59491
796.53        66.52972
796.94         66.1377
797.35        65.65174
797.76        66.05043
798.18          67.103
798.59        67.61225
799.00        67.42091
799.41        67.14755
799.82        66.93319
800.23        66.75414
800.64        66.66776
801.06        66.63686
801.47        66.65051
801.88        66.61502
802.29        66.50123
802.70        66.33282
803.11        66.14911
803.52        66.00884
803.93        65.95361
804.34        65.98281
804.75         66.0541
805.17        66.19246
805.58        66.43443
805.99        66.42146
806.40         66.2714
806.81        66.96581
807.22        68.14848
807.63        67.98843
808.04        66.66309
808.45        66.04134
808.86        66.26336
809.27        66.29528
809.68        66.06799
810.09        65.98309
810.50        66.04028
810.91        66.12682
811.32        66.27619
811.73        66.53686
812.14        66.89751
812.55        67.35012
812.96         67.7605
813.37        67.87489
813.78        67.64193
814.19        67.15686
814.60        66.61538
815.01        66.28767
815.42        66.22993
815.83        66.36898
816.24        66.60829
816.65        66.75175
817.05        66.73676
817.46         66.6145
817.87        66.45113
818.28         66.2934
818.69        66.16875
819.10        66.03815
819.51        65.98113
819.92        66.14633
820.33        66.54006
820.74        67.10935
821.14        67.66366
821.55        67.89159
821.96        67.72771
822.37        67.25684
822.78        66.66766
823.19        66.29135
823.60        66.23669
824.00        66.44451
824.41        66.74638
824.82        66.94687
825.23        66.96654
825.64        66.87305
826.04        66.75107
826.45         66.6916
826.86        66.73936
827.27        66.86015
827.68        66.98544
828.08        67.03746
828.49        66.94505
828.90        66.75265
829.31        66.57142
829.72        66.57961
830.12        66.83481
830.53         67.2318
830.94        67.60999
831.35        67.64929
831.75        67.29797
832.16        66.64939
832.57        65.94926
832.97        65.56281
833.38        65.58503
833.79        65.87873
834.20        66.32096
834.60        66.71532
835.01        66.98795
835.42        67.23999
835.82        67.43113
836.23        67.41092
836.64        67.20599
837.04        66.82173
837.45        66.49586
837.86        66.68706
838.26        67.48827
838.67        68.71713
839.08        69.97099
839.48        70.47527
839.89        70.01624
840.29        68.87273
840.70        67.57222
841.11        66.69848
841.51        66.42813
841.92        66.56786
842.33         67.0004
842.73        67.52512
843.14        67.93714
843.54        68.34742
843.95        68.71699
844.35        69.02972
844.76        69.25399
845.17        69.35539
845.57        69.31861
845.98        69.11973
846.38        68.79839
846.79        68.37683
847.19        67.94594
847.60        67.62163
848.00        67.45029
848.41        67.38792
848.81        67.42023
849.22        67.42693
849.62         67.4153
850.03         67.4133
850.43        67.42881
850.84        67.40827
851.24        67.39417
851.65        67.32214
852.05        67.36111
852.46         67.6956
852.86        68.32334
853.27        69.14068
853.67        69.83599
854.07        70.10552
854.48          69.875
854.88        69.25971
855.29        68.41711
855.69        67.77771
856.10        67.43095
856.50         67.3614
856.90        67.40588
857.31        67.29517
857.71        67.00836
858.12        66.57841
858.52        66.19193
858.92        66.03246
859.33        66.13145
859.73        66.45889
860.13        66.81435
860.54        66.89954
860.94        66.68288
861.34        66.23512
861.75        65.75716
862.15        65.62319
862.55        65.89775
862.96        66.42684
863.36        67.04877
863.76        67.40464
864.17        67.37539
864.57        67.11572
864.97        66.68797
865.38        66.19558
865.78        65.73051
866.18        65.24901
866.58        64.88473
866.99        64.87438
867.39        65.26754
867.79        65.98317
868.19        66.77602
868.60        67.24172
869.00        67.30581
869.40        67.02522
869.80        66.57024
870.21        66.29354
870.61        66.37151
871.01        66.65421
871.41        66.92655
871.81        66.87693
872.22        66.45395
872.62        65.77718
873.02        65.09125
873.42         64.7974
873.82         64.9984
874.22        65.54202
874.63        66.18511
875.03        66.56873
875.43        66.56576
875.83        66.28759
876.23        65.85842
876.63        65.46674
877.03        65.19415
877.44        64.97468
877.84        64.80871
878.24         64.7298
878.64        64.68998
879.04        64.53066
879.44         64.3791
879.84        64.53202
880.24        64.97532
880.64        65.57613
881.04        65.99987
881.44        65.73341
881.84        64.71309
882.24        63.15247
882.65        61.55994
883.05        60.71572
883.45        60.82207
883.85        61.66979
884.25         62.8945
884.65        63.85153
885.05        64.30302
885.45        64.40118
885.85        64.32681
886.25        64.36987
886.65        64.60963
887.05        64.92905
887.45        65.18319
887.85        65.16652
888.25        64.84334
888.65        64.31683
889.04        63.77938
889.44        63.53324
889.84        63.62708
890.24        63.96404
890.64        64.35765
891.04        64.50244
891.44        64.32069
891.84         63.9264
892.24        63.45824
892.64         63.1127
893.04        62.96433
893.44        62.97612
893.83        63.13041
894.23        63.34794
894.63        63.61413
895.03        63.92026
895.43        64.30285
895.83        64.81966
896.23        65.43411
896.63        66.07459
897.02        66.54357
897.42        66.57457
897.82        66.13322
898.22        65.35346
898.62        64.45713
899.01        63.76387
899.41        63.39231
899.81        63.25811
900.21         63.3138
900.61        63.46892
901.00        63.66529
901.40        63.91587
901.80        64.16339
902.20        64.30289
902.59        64.32564
902.99        64.25314
903.39        64.11475
903.79        63.97583
904.18        63.85694
904.58        63.72963
904.98        63.69828
905.38        63.92736
905.77        64.42502
906.17        65.17432
906.57        65.88475
906.96        66.06751
907.36         65.6216
907.76         64.7057
908.15        63.78753
908.55         63.5989
908.95        64.29483
909.34        65.63864
909.74         67.0991
910.14        67.87463
910.53        67.70355
910.93         66.8689
911.33        65.67273
911.72        64.57178
912.12         63.8129
912.52        63.28239
912.91        62.96693
913.31        62.86366
913.70          62.954
914.10        63.24297
914.49        63.75648
914.89        64.41985
915.29        65.18454
915.68        66.00627
916.08        66.67925
916.47        66.96457
916.87        66.82361
917.26        66.30202
917.66        65.66515
918.05        65.18946
918.45        64.96609
918.84        64.98071
919.24        65.07784
919.64         65.1115
920.03        65.04416
920.42        64.88791
920.82        64.79527
921.21         64.9361
921.61        65.31898
922.00        65.92678
922.40        66.48832
922.79        66.68326
923.19        66.40569
923.58        65.77436
923.98        65.11505
924.37        64.84907
924.77         65.0762
925.16        65.64283
925.55        66.28147
925.95        66.50751
926.34        66.20686
926.74        65.51919
927.13        64.68813
927.52        64.02782
927.92        63.69545
928.31        63.59682
928.70        63.65722
929.10        63.73588
929.49        63.76904
929.89        63.73678
930.28        63.82022
930.67        64.20855
931.07        64.88509
931.46        65.83992
931.85        66.63602
932.24        66.63008
932.64        65.77641
933.03        64.27784
933.42        62.81258
933.82        62.36659
934.21        63.13282
934.60        64.85969
934.99        66.90508
935.39        68.09336
935.78        68.09525
936.17        67.15807
936.56        65.83972
936.96        65.02945
937.35        64.97058
937.74        65.37962
938.13        65.85519
938.53        65.80049
938.92        65.09592
939.31        64.03118
939.70        62.94818
940.09        62.28711
940.49        62.13659
940.88        62.37395
941.27        62.87437
941.66        63.40983
942.05        63.87044
942.44        64.32724
942.84        64.76126
943.23        65.13076
943.62        65.43401
944.01        65.61065
944.40        65.73217
944.79        65.96095
945.18        66.29802
945.57        66.67732
945.97        66.87735
946.36        66.62995
946.75        65.86581
947.14        64.77656
947.53         63.5966
947.92        62.62775
948.31        61.97218
948.70         61.5601
949.09        61.41914
949.48        61.58539
949.87        62.02447
950.26         62.7132
950.65        63.47707
951.04        64.01857
951.43        64.24548
951.82        64.20493
952.21        64.01033
952.60        63.88204
952.99        63.90142
953.38        64.01286
953.77        64.19013
954.16        64.39975
954.55        64.60159
954.94        64.77456
955.33        64.91101
955.72        64.97976
956.11        64.96401
956.50        64.90395
956.89        64.65636
957.28        64.00609
957.66        62.96967
958.05        61.68412
958.44        60.56697
958.83        60.20251
959.22        60.66495
959.61        61.80354
960.00        63.11309
960.39        63.64544
960.78        63.13661
961.16        61.87788
961.55        60.48159
961.94        59.76968
962.33        59.94479
962.72         60.7952
963.11        61.95985
963.49        62.76007
963.88        62.86267
964.27        62.47896
964.66        61.99712
965.04        62.01579
965.43        62.61651
965.82        63.65228
966.21        64.66228
966.60        64.80028
966.98        63.83664
967.37        62.16612
967.76        60.46158
968.15         59.5396
968.53        59.56154
968.92        60.33754
969.31        61.41154
969.69         61.8895
970.08        61.42775
970.47        60.33295
970.86        59.27937
971.24        59.22046
971.63        60.33277
972.02        62.34634
972.40        64.58756
972.79        65.46526
973.17        64.58768
973.56        62.54631
973.95        60.28137
974.33        59.00074
974.72        58.96833
975.11        59.78772
975.49        61.12266
975.88        62.24306
976.26        62.86006
976.65        63.15998
977.04        63.16133
977.42        62.85592
977.81        62.26661
978.19        61.31448
978.58        60.37118
978.96        60.04066
979.35        60.41828
979.74        61.41491
980.12        62.57955
980.51        62.83926
980.89         62.0882
981.28        60.67663
981.66        59.25608
982.05        58.72532
982.43         59.2888
982.82        60.61613
983.20        62.47645
983.59        64.31562
983.97        65.88596
984.35         67.2823
984.74        68.15751
985.12        68.20576
985.51         67.3839
985.89         65.8328
986.28        64.20583
986.66        63.43209
987.04         63.7863
987.43        65.02186
987.81        66.71455
988.20        67.84715
988.58        68.04098
988.96        67.47463
989.35        66.47115
989.73         65.5002
990.12        64.70023
990.50        63.99065
990.88        63.17601
991.27        62.01205
991.65        60.56566
992.03        59.04547
992.42        57.95526
992.80        57.90294
993.18        58.98635
993.56        61.05374
993.95        63.42343
994.33        64.93386
994.71        65.03563
995.10        64.07676
995.48        62.74748
995.86        62.22084
996.24        62.76288
996.63        63.89959
997.01        65.26984
997.39        65.80671
997.77        65.13854
998.15        63.82452
998.54        62.15805
998.92        60.37201
999.30        58.74693
999.68        57.21875
1000.06        56.34427
1000.45        56.91599
1000.83        59.10457
1001.21        62.80946
1001.59        67.13792
1001.97        69.82568
1002.35        69.93742
1002.73        68.06003
1003.12        65.49057
1003.50        63.88924
1003.88        63.75916
1004.26          64.534
1004.64         65.8743
1005.02        67.02319
1005.40        67.58228
1005.78        67.99348
1006.16        67.95113
1006.54        66.89525
1006.92        64.96117
1007.30        62.34398
1007.69        60.12754
1008.07        59.75396
1008.45         61.6081
1008.83        65.34057
1009.21        69.88954
1009.59        72.53949
1009.97        72.02431
1010.35        69.24184
1010.73         65.2078
1011.11        61.41164
1011.49        58.51228
1011.86        56.14636
1012.24        54.79223
1012.62        55.11178
1013.00        57.13319
1013.38        60.97118
1013.76        65.67252
1014.14        68.57772
1014.52        68.44364
1014.90        65.73293
1015.28        62.22388
1015.66        60.63192
1016.04        61.49448
1016.41        64.03748
1016.79        66.95366
1017.17        67.93333
1017.55        66.34847
1017.93         63.1714
1018.31        59.62112
1018.69        57.22275
1019.06        56.38037
1019.44        56.69188
1019.82        57.74238
1020.20        58.60384
1020.58        58.77304
1020.95        58.43039
1021.33        58.13737
1021.71        58.46438
1022.09        59.56461
1022.46         61.4928
1022.84        63.43903
1023.22        63.60893
1023.60        61.47457
1023.97        57.54057
1024.35        54.14436
1024.73        53.87944
