SpectraSmart Spectrum 2.9.0.0
--------- Device Information -----------
Spectrum Name :  反射率_0
Saving Time :  2024/04/27 00:41:44
Spectro-Module Model Name : SE2030-DUVN
Spectro-Module Serial Number : OS361AC55029948
Wavelength Start : 200
Wavelength End : 1025
Wavelength Unit : Wavelength(nm)
Spectrum Unit : Reflectance(%)
-----------Spectrum Setting ------------
Integration Time : 20ms
Average : 10
Boxcar : 0
Background removal :  enabled
linearity correction :  enabled
SC :  disabled
Intensity correction :  disabled
DWT denoise :  enabled
savitzky-golay :  disabled
FFT :  disabled
Running average :  disabled
Kalman :  disabled
High pass :  disabled
---------------BEGIN--------------------
Wavelength(nm)             Reflectance(%)
200.29               0
200.75         34.9413
201.21        33.64398
201.67        32.83979
202.13        32.30999
202.58        31.87624
203.04        31.89564
203.50        32.65894
203.96        34.53942
204.42        37.52118
204.88        41.07322
205.34        44.35636
205.80        46.26145
206.26        46.39976
206.72         45.1517
207.18        42.98837
207.64        40.00018
208.10          35.953
208.55        30.22003
209.01        22.98516
209.47        19.74313
209.93        23.22018
210.39        29.72266
210.85        35.45063
211.31        39.39963
211.77        42.78753
212.23        47.45831
212.69        57.93081
213.14        81.00052
213.60        88.77509
214.06        79.32389
214.52        69.73432
214.98        63.04432
215.44        57.20141
215.90        50.47663
216.36        44.11098
216.81        40.26466
217.27        39.97654
217.73        44.05045
218.19        50.68468
218.65        51.04336
219.11         43.5322
219.57        34.39443
220.02        29.74895
220.48         33.0182
220.94        44.16485
221.40        64.72436
221.86        93.60263
222.32        110.7206
222.77         100.024
223.23        75.59292
223.69        52.53185
224.15        38.93388
224.61        33.02305
225.06        30.80021
225.52        30.63681
225.98         31.0722
226.44        31.61492
226.90        32.72038
227.36         33.9432
227.81        34.34769
228.27        33.85612
228.73        32.55683
229.19        31.19679
229.65        30.71956
230.10        31.18232
230.56        32.35752
231.02        33.51416
231.48        33.50303
231.93        32.20193
232.39         30.2956
232.85        28.70217
233.31        28.64174
233.77        30.16843
234.22        32.85357
234.68        35.78869
235.14        37.65617
235.60        38.09156
236.05        37.48319
236.51        36.40461
236.97        36.04808
237.43        36.92995
237.88         38.7264
238.34        41.13003
238.80        43.91146
239.26        47.15959
239.71        51.68993
240.17          57.292
240.63        63.02464
241.08        68.04891
241.54        71.14506
242.00        73.97202
242.46        81.13654
242.91        96.27789
243.37         122.263
243.83        158.5186
244.28        184.2822
244.74        173.6898
245.20        131.2849
245.66        86.18773
246.11        61.54734
246.57         56.7639
247.03        64.25217
247.48         77.3176
247.94         83.7291
248.40         81.4194
248.85        76.22312
249.31        71.74905
249.77        69.49937
250.22        69.22003
250.68        69.74007
251.14        70.90865
251.59        72.50596
252.05         74.1434
252.51        76.15411
252.96        77.10364
253.42        76.17345
253.88        73.71375
254.33         70.0378
254.79        67.60833
255.25         68.0831
255.70        71.05373
256.16        75.81113
256.62        79.66553
257.07        78.76887
257.53        74.54214
257.99        69.39553
258.44        65.25011
258.90        64.05883
259.35         64.7328
259.81        66.53718
260.27        68.12874
260.72        67.96452
261.18        66.30434
261.63        63.65192
262.09        61.16962
262.55        59.50024
263.00        58.54304
263.46        58.13227
263.91        57.60867
264.37        56.49395
264.83        54.76204
265.28        52.66405
265.74        50.83975
266.19        49.76176
266.65        49.50556
267.11        49.72773
267.56        49.99777
268.02        49.65605
268.47        48.54292
268.93        46.93348
269.38        45.07401
269.84        43.39187
270.30        42.01825
270.75        40.83101
271.21         39.8524
271.66        39.05324
272.12        38.40129
272.57        37.89312
273.03        37.43107
273.48        36.82874
273.94        36.09729
274.39        35.25043
274.85        34.42794
275.31        33.70513
275.76        33.08123
276.22        32.55251
276.67         32.0753
277.13        31.67622
277.58        31.29471
278.04        30.94997
278.49        30.54884
278.95        30.06528
279.40        29.45622
279.86        28.81471
280.31        28.14235
280.77        27.54113
281.22        27.00124
281.68        26.55259
282.13        26.18217
282.59        25.94588
283.04        25.81252
283.50        25.79052
283.95        25.81773
284.41        25.80296
284.86        25.72636
285.32        25.63417
285.77        25.57384
286.22         25.6779
286.68        25.95748
287.13        26.32128
287.59        26.70691
288.04        26.97544
288.50        27.10966
288.95        27.12721
289.41        27.06997
289.86        26.93391
290.32        26.78262
290.77        26.62164
291.22        26.53319
291.68        26.62051
292.13        26.90694
292.59        27.40518
293.04        28.08478
293.50        28.90145
293.95        29.82852
294.40        30.87953
294.86        32.06294
295.31        33.38528
295.77        34.83961
296.22         36.3791
296.68          37.985
297.13        39.62066
297.58        41.28466
298.04        42.99852
298.49        44.73474
298.95        46.47103
299.40        48.19471
299.85        49.90776
300.31        51.68301
300.76        53.61266
301.21        55.70314
301.67        57.92457
302.12        60.12039
302.58        62.14206
303.03        63.91702
303.48        65.54011
303.94        67.13725
304.39        68.82948
304.84        70.67947
305.30        72.64075
305.75        74.63728
306.20        76.64508
306.66        78.64796
307.11        80.62344
307.57        82.51727
308.02        84.12942
308.47        85.47626
308.93        86.62061
309.38        87.72005
309.83         89.1433
310.29           90.95
310.74         93.0135
311.19        95.06306
311.65        96.62226
312.10        97.55077
312.55        97.99312
313.00        98.22579
313.46         98.6839
313.91        99.46085
314.36         100.459
314.82        101.4989
315.27        102.3082
315.72        102.7897
316.18        103.0695
316.63        103.2559
317.08        103.5558
317.53        104.0312
317.99        104.6066
318.44        105.2048
318.89        105.6787
319.35        105.9795
319.80        106.1493
320.25        106.2757
320.70        106.4979
321.16        106.8453
321.61        107.3209
322.06        107.7882
322.51        108.0364
322.97        108.0114
323.42        107.7793
323.87        107.5736
324.32        107.7929
324.78        108.4799
325.23        109.6034
325.68        110.7448
326.13        111.2081
326.59        110.8296
327.04         109.845
327.49        108.7635
327.94         108.423
328.39        109.0214
328.85        110.2777
329.30        111.8333
329.75        112.7741
330.20        112.8098
330.66        112.1883
331.11        111.3609
331.56        110.9704
332.01        111.2222
332.46        111.8888
332.92        112.6919
333.37        113.3345
333.82        113.6277
334.27        113.7407
334.72        113.7538
335.17        113.7657
335.63        113.8341
336.08         113.971
336.53         114.258
336.98        114.8944
337.43        115.8922
337.88        117.1638
338.34        118.5016
338.79        119.6686
339.24         120.493
339.69        121.0297
340.14        121.2628
340.59        121.2017
341.05         120.942
341.50        120.5088
341.95        120.1185
342.40        120.0959
342.85        120.5149
343.30        121.2923
343.75         122.267
344.20        123.1452
344.66        123.8131
345.11        124.3268
345.56        124.6842
346.01        124.9024
346.46        125.0217
346.91        125.0447
347.36        125.0415
347.81        125.1451
348.26        125.3731
348.72        125.6689
349.17        126.0052
349.62        126.3673
350.07        126.7182
350.52        127.0824
350.97         127.268
351.42        126.9739
351.87        126.1942
352.32        125.0462
352.77        123.9276
353.22        123.4187
353.67        123.6172
354.13        124.3464
354.58        125.2122
355.03        125.5061
355.48        125.0363
355.93        124.0068
356.38         122.814
356.83        122.0573
357.28        121.8598
357.73        122.0105
358.18        122.1662
358.63        121.7917
359.08        120.7666
359.53        119.3002
359.98        117.7073
360.43        116.4255
360.88        115.5583
361.33        114.9698
361.78        114.4516
362.23        113.6836
362.68        112.6028
363.13        111.3423
363.58        110.0874
364.03        109.1042
364.48        108.4409
364.93        107.9797
365.38        107.5811
365.83        107.0366
366.28        106.2867
366.73         105.415
367.18        104.4692
367.63        103.5144
368.08        102.5884
368.53        101.6681
368.98        100.8062
369.43        100.0893
369.88        99.52127
370.33        99.07764
370.78        98.66195
371.23        98.11179
371.68         97.3847
372.13        96.51969
372.58        95.59936
373.03         94.7616
373.48          94.037
373.93        93.37399
374.38        92.71735
374.83        91.98469
375.28        91.16206
375.72        90.28269
376.17        89.42473
376.62        88.58451
377.07        87.79249
377.52        87.06802
377.97        86.45144
378.42        86.02433
378.87         85.7843
379.32        85.65009
379.77        85.60455
380.22        85.62427
380.67        85.65873
381.11         85.7329
381.56        85.59605
382.01        84.94699
382.46        83.80546
382.91        82.35297
383.36        80.97872
383.81        80.20698
384.26        80.10808
384.71        80.50173
385.15        81.12117
385.60        81.48702
386.05        81.43772
386.50        81.10178
386.95        80.55556
387.40        79.93314
387.85        79.31427
388.29        78.61847
388.74        78.00993
389.19          77.519
389.64        77.14904
390.09        76.89325
390.54        76.70025
390.98        76.45674
391.43        76.16986
391.88        75.84645
392.33        75.52734
392.78        75.23633
393.23        74.97294
393.67        74.79174
394.12        74.68724
394.57         74.2784
395.02        73.65746
395.47        73.35667
395.91        73.38012
396.36         73.2327
396.81        72.92966
397.26        72.78342
397.71        72.72105
398.15        72.50993
398.60        72.22598
399.05        71.73945
399.50        71.21826
399.95        71.21825
400.39        71.62988
400.84        71.60166
401.29        71.09385
401.74        70.73655
402.18        70.54366
402.63        70.06703
403.08         69.4502
403.53        69.11646
403.97        69.10564
404.42        69.29633
404.87        69.51405
405.32        69.47489
405.76         69.1112
406.21        68.57944
406.66        68.04507
407.11        67.71137
407.55        67.70033
408.00        68.01379
408.45        68.48274
408.90        68.76402
409.34        68.66805
409.79        68.06548
410.24        67.22484
410.68        66.76052
411.13          66.766
411.58        66.95347
412.03        67.14805
412.47        67.15759
412.92        66.89378
413.37        66.46564
413.81        66.02614
414.26        65.85142
414.71        65.96552
415.15        66.30178
415.60        66.70705
416.05        66.99176
416.49        67.08537
416.94        67.03696
417.39        66.91461
417.83        66.80773
418.28        66.75813
418.73        66.73784
419.17        66.74308
419.62        66.77583
420.07        66.81736
420.51        66.84381
420.96        66.88384
421.41         66.8831
421.85        66.80363
422.30        66.83678
422.74        66.85724
423.19        66.52114
423.64        65.92907
424.08         65.7313
424.53        65.93341
424.98        66.04666
425.42        66.06078
425.87         66.2663
426.31        66.57578
426.76        66.65382
427.21        66.47618
427.65        66.12704
428.10        65.73033
428.54        65.58333
428.99         65.7523
429.44        65.85745
429.88         65.9491
430.33        66.51683
430.77        67.24766
431.22        67.59697
431.66        67.44307
432.11        66.69439
432.56        65.71561
433.00        65.52995
433.45        66.29664
433.89        67.19517
434.34        67.49802
434.78        68.32261
435.23        67.41296
435.67        65.52313
436.12         66.0641
436.57        66.21387
437.01        66.79575
437.46        67.09711
437.90        67.17282
438.35        65.86082
438.79         66.3677
439.24        66.16186
439.68        66.13726
440.13        66.43484
440.57        66.98962
441.02        66.98035
441.46        66.52478
441.91        67.17462
442.35        68.44757
442.80        68.35191
443.24        67.14842
443.69        67.04848
444.13         67.9679
444.58        68.30341
445.02        68.03637
445.47        67.68844
445.91        68.03091
446.36        68.19851
446.80        68.38686
447.24        68.64292
447.69        68.91571
448.13        69.09372
448.58        69.16035
449.02        69.11913
449.47        69.01422
449.91        68.89462
450.36        68.80525
450.80        68.71307
451.25        68.64654
451.69        68.59596
452.13        68.57013
452.58        68.55821
453.02        68.54938
453.47        68.52807
453.91        68.47567
454.36        68.42365
454.80        68.37202
455.24        68.10231
455.69        67.59589
456.13        67.28316
456.58        67.39491
457.02        66.13711
457.46        66.71725
457.91        66.83182
458.35        67.15814
458.79        67.08409
459.24        66.62431
459.68        65.94484
460.13        65.29774
460.57        64.97344
461.01        65.07411
461.46        65.33257
461.90        65.74094
462.34        66.19635
462.79        66.28313
463.23        66.31081
463.68        66.12149
464.12         65.9453
464.56        65.72016
465.01        64.92719
465.45         63.8303
465.89        63.69041
466.34        64.31187
466.78        64.41705
467.22        63.97448
467.67         63.6493
468.11        63.65945
468.55        63.72429
468.99        63.80625
469.44        63.71613
469.88         63.4512
470.32        63.19169
470.77        62.99384
471.21        62.84753
471.65        62.75943
472.10        62.73803
472.54        62.76305
472.98        62.77385
473.42        62.74043
473.87        62.79623
474.31        62.83857
474.75        62.51609
475.20        61.95811
475.64        61.77262
476.08        61.97454
476.52        61.91236
476.97        61.53376
477.41        61.74407
477.85        61.77475
478.29        61.53579
478.74         62.0465
479.18        62.09484
479.62        61.73112
480.06        61.61005
480.50        61.65113
480.95        61.66818
481.39        61.61221
481.83         61.5882
482.27        61.32796
482.72        61.49091
483.16        61.50127
483.60        61.14781
484.04        61.47799
484.48        61.65862
484.93        61.85877
485.37        61.82314
485.81        61.03461
486.25        61.23507
486.69        63.02666
487.14         63.8352
487.58        61.45434
488.02        61.85825
488.46        60.47052
488.90        60.36098
489.34        61.19002
489.79         62.1015
490.23        61.75983
490.67        61.24264
491.11        60.47819
491.55        60.33303
491.99        60.73563
492.43        60.68658
492.88        60.18924
493.32        59.97756
493.76        60.07722
494.20        60.12644
494.64        60.10059
495.08        60.09283
495.52        60.09867
495.96        60.11522
496.41        60.12444
496.85        60.12096
497.29        59.99625
497.73        59.93192
498.17        59.25682
498.61        59.14307
499.05        59.37266
499.49        59.66745
499.93        59.70084
500.37        59.76537
500.82        59.84139
501.26        59.57858
501.70        59.82445
502.14        59.84887
502.58        59.89022
503.02        59.95214
503.46        60.04376
503.90        60.02859
504.34        60.13452
504.78         60.0544
505.22        59.86411
505.66        59.60117
506.10        59.35666
506.54        59.21744
506.98        59.19896
507.42        59.35236
507.86        59.63647
508.30        59.53699
508.74        59.72292
509.18        59.65659
509.62        59.56774
510.06        59.47306
510.50        59.39378
510.94        59.31097
511.38        59.22843
511.82        59.17436
512.26        59.15296
512.70         59.1663
513.14         59.2022
513.58        59.23452
514.02         59.2554
514.46        59.26702
514.90        59.27956
515.34        59.31272
515.78        59.36538
516.22        59.42331
516.66        59.46722
517.10        59.46781
517.54        59.42174
517.98        59.34783
518.42        59.25705
518.86        59.16651
519.30         59.0872
519.74        59.01237
520.18        58.96883
520.62         58.9962
521.06        59.09549
521.50        59.25745
521.93        59.42219
522.37        59.47157
522.81        59.39117
523.25        59.21156
523.69        59.01559
524.13        58.93585
524.57        58.99608
525.01        59.14709
525.45        59.31321
525.89        59.37048
526.32        59.28262
526.76          59.116
527.20        58.90913
527.64        58.72582
528.08        58.59401
528.52        58.48927
528.96         58.4374
529.40        58.48106
529.83          58.611
530.27        58.81759
530.71        59.01764
531.15        59.08118
531.59        58.98381
532.03        58.76439
532.46        58.49604
532.90        58.33923
533.34        58.32242
533.78        58.36614
534.22        58.42603
534.66        58.50494
535.09        58.53826
535.53        58.41574
535.97         58.1748
536.41        58.02394
536.85        57.98828
537.28        57.95552
537.72        57.93929
538.16        58.00933
538.60        58.15784
539.04        58.35979
539.47        58.54489
539.91        58.64195
540.35        58.62201
540.79        58.51283
541.22        58.36077
541.66        58.26124
542.10        58.23466
542.54         58.2567
542.97         58.2938
543.41         58.3195
543.85        58.31352
544.29        58.29572
544.72        58.26392
545.16        58.24112
545.60        58.22034
546.04        58.21757
546.47        58.23756
546.91        58.24282
547.35        58.24804
547.79        58.34432
548.22        58.49077
548.66        58.52982
549.10        58.51179
549.53        58.47914
549.97        58.44958
550.41        58.29633
550.84        58.08625
551.28         58.0105
551.72        58.03861
552.15        58.07751
552.59        58.17427
553.03        57.84821
553.46        58.20041
553.90         58.1906
554.34        58.13658
554.77        58.05776
555.21        58.00893
555.65        58.04456
556.08        58.15527
556.52        58.28433
556.96        58.36867
557.39        58.46874
557.83        58.52241
558.27        58.22042
558.70        57.68784
559.14        57.47124
559.57        57.57569
560.01         57.6766
560.45        57.71745
560.88        57.79005
561.32        57.89684
561.75        57.95687
562.19          57.993
562.63        57.98783
563.06        57.93611
563.50        57.92716
563.93        57.93954
564.37        57.76155
564.80        57.91469
565.24        57.86243
565.68        57.62684
566.11         58.2465
566.55        57.62861
566.98        57.51068
567.42        57.39799
567.85         57.4469
568.29        57.67176
568.72          58.053
569.16        58.58023
569.60        58.76551
570.03        58.75171
570.47        58.95272
570.90        59.19895
571.34        58.39058
571.77        58.97174
572.21         59.2841
572.64        59.15432
573.08        59.43637
573.51        58.53079
573.95         58.5724
574.38        59.26991
574.82        59.02724
575.25        58.96915
575.69        58.85806
576.12        59.20166
576.56        58.36589
576.99        58.57095
577.42        59.19744
577.86        59.28313
578.29        59.79448
578.73        59.90173
579.16        59.62553
579.60        58.87736
580.03        58.83648
580.47        58.78939
580.90         59.4819
581.33        59.44592
581.77        59.93244
582.20        59.79486
582.64         60.1457
583.07        59.57117
583.51        59.10554
583.94        58.68306
584.37        58.65893
584.81        59.09599
585.24        59.37166
585.68        59.33501
586.11        59.49263
586.54        59.18916
586.98        58.66615
587.41        58.42184
587.85        58.81801
588.28        58.54217
588.71        58.53611
589.15        58.30996
589.58        58.37598
590.01        58.11884
590.45        58.16667
590.88         58.5831
591.31        58.47442
591.75         58.0216
592.18         57.6314
592.61        57.55285
593.05        57.90729
593.48        59.26887
593.91        58.86897
594.35        58.87284
594.78        58.04425
595.21        57.67678
595.65        58.02914
596.08         59.1991
596.51        59.09861
596.94        58.39266
597.38        58.01413
597.81        58.18335
598.24        58.70653
598.68        58.20804
599.11        58.04179
599.54        59.24233
599.97        58.73118
600.41        58.41427
600.84        57.84387
601.27         58.3086
601.70        58.12687
602.14        58.33486
602.57        58.05964
603.00        57.90565
603.43        57.73933
603.87        58.45876
604.30        58.50156
604.73        58.20436
605.16        57.78432
605.60        57.63426
606.03        57.51947
606.46        57.46514
606.89        57.50022
607.32        57.71478
607.76        57.30635
608.19        57.75374
608.62        57.69829
609.05        57.61977
609.48        57.65525
609.92        58.59266
610.35        57.83964
610.78        57.67669
611.21        57.42613
611.64        57.55452
612.07        57.72987
612.50        57.58993
612.94        57.56937
613.37        57.52178
613.80        57.50328
614.23        57.03221
614.66        56.95369
615.09         57.1285
615.52         57.3019
615.96        57.36736
616.39        57.44191
616.82        57.54477
617.25        57.02501
617.68        56.94911
618.11        56.95296
618.54        57.29158
618.97        57.43686
619.40        57.31949
619.84          57.447
620.27        57.26812
620.70        57.13535
621.13        56.90657
621.56        56.53808
621.99        56.14503
622.42        56.08553
622.85        56.34692
623.28        56.44831
623.71        56.63665
624.14        56.43035
624.57        56.94161
625.00        56.46215
625.43        56.75245
625.86        56.69173
626.29        56.78412
626.72        56.35699
627.15        56.67314
627.58        56.68944
628.01        56.68627
628.44        56.69834
628.87         56.5495
629.30        56.34341
629.73        56.16841
630.16        56.50352
630.59        56.21039
631.02         56.3097
631.45        56.42567
631.88        56.50098
632.31        56.50703
632.74        56.47885
633.17        56.42949
633.60        56.34881
634.03         56.2482
634.46        56.12458
634.89        55.99472
635.32        55.90238
635.75        55.86091
636.18        55.80129
636.61        55.74215
637.04        55.74665
637.47        55.81362
637.89        55.91646
638.32        55.99832
638.75        56.02075
639.18        55.97174
639.61        55.86518
640.04        55.74305
640.47        55.67371
640.90        55.67534
641.33        55.73035
641.76        55.80949
642.18        55.86974
642.61        55.87768
643.04        55.85239
643.47        55.81313
643.90        55.79075
644.33        55.79142
644.76        55.80439
645.18        55.80786
645.61        55.75353
646.04        55.64433
646.47         55.5043
646.90        55.37495
647.33        55.31607
647.75        55.32184
648.18        55.40852
648.61        55.57343
649.04        55.64751
649.47        55.54086
649.89        56.02996
650.32        55.64137
650.75        55.61211
651.18        55.56107
651.61        55.61636
652.03        55.76702
652.46        55.87446
652.89        55.90746
653.32        55.87055
653.74        55.90908
654.17        55.64402
654.60        55.80272
655.03        55.90349
655.46        55.16788
655.88        55.37554
656.31        59.02982
656.74        62.86599
657.16        61.55325
657.59        60.33775
658.02        57.47303
658.45        56.59979
658.87        56.20041
659.30        55.94164
659.73        55.79655
660.15        56.34778
660.58        55.45807
661.01        55.45633
661.44        55.63956
661.86         55.5359
662.29        55.10973
662.72        55.41357
663.14        55.37642
663.57        55.38573
664.00        55.20364
664.42        55.25848
664.85         55.5592
665.27        55.89053
665.70        56.12113
666.13        56.18739
666.55        56.06445
666.98        55.71025
667.41        55.23186
667.83        55.16421
668.26        54.98064
668.69        55.11075
669.11        55.32058
669.54        55.46013
669.96        55.48362
670.39         55.6013
670.82        55.54714
671.24        55.61803
671.67        55.72816
672.09        55.84747
672.52        55.94809
672.94        55.96535
673.37        55.89867
673.80        55.76375
674.22        55.61661
674.65        55.51742
675.07        55.50127
675.50        55.53837
675.92        55.59482
676.35        55.60346
676.77        55.54966
677.20        55.45598
677.62        55.35424
678.05        55.29079
678.47        55.27493
678.90        55.30266
679.32        55.35559
679.75        55.38817
680.17        55.38104
680.60        55.46245
681.02        55.43226
681.45        55.46585
681.87        55.51463
682.30         55.5636
682.72        55.61029
683.15         55.6458
683.57        55.66883
684.00        55.61747
684.42        55.54559
684.85        55.58847
685.27        55.74707
685.70        55.97603
686.12        56.18387
686.54        56.23767
686.97         56.1195
687.39         55.9184
687.82        55.70126
688.24        55.55433
688.66        55.51074
689.09        55.55867
689.51        55.66776
689.94        55.74679
690.36        55.77585
690.78        55.76845
691.21        55.74831
691.63        55.74553
692.06        55.76889
692.48        55.80991
692.90        55.83009
693.33        55.77735
693.75        55.64936
694.17        55.44831
694.60        55.25399
695.02        55.22134
695.44        55.35585
695.87        55.55344
696.29        55.74445
696.71        55.80027
697.14        55.72575
697.56         55.6244
697.98        55.55119
698.41        55.58317
698.83        55.57886
699.25        55.71664
699.68        55.86802
700.10        55.91574
700.52        55.81863
700.94        55.62955
701.37        55.44186
701.79        55.40594
702.21        55.54691
702.64        55.80244
703.06        56.08841
703.48        56.25249
703.90        56.25103
704.33        56.13308
704.75        55.95225
705.17        55.78767
705.59        55.67885
706.01        55.60463
706.44        55.57288
706.86         55.6254
707.28        55.75146
707.70        55.90425
708.12        56.06172
708.55        56.26037
708.97        56.44305
709.39        56.41058
709.81        56.20346
710.23        56.10166
710.66        56.13565
711.08        56.16856
711.50        56.16083
711.92        56.12687
712.34        56.06146
712.76        55.97798
713.19        55.88019
713.61         55.8034
714.03        55.75056
714.45        55.72173
714.87        55.74283
715.29        55.85423
715.71        56.05013
716.13        56.30128
716.56        56.54004
716.98        56.72742
717.40         56.8064
717.82         56.7953
718.24        56.69314
718.66        56.50255
719.08        56.25575
719.50        55.98066
719.92        55.74594
720.34        55.65198
720.76        55.71676
721.19        55.88903
721.61        56.15557
722.03        56.44522
722.45        56.70893
722.87        56.95068
723.29        57.10679
723.71        57.03919
724.13        56.73813
724.55        56.33456
724.97        55.97539
725.39        55.48552
725.81        55.58271
726.23        55.67992
726.65        55.90658
727.07         56.1871
727.49        56.38497
727.91         56.5953
728.33        56.77311
728.75        56.91291
729.17         57.0053
729.59        57.02963
730.01        57.00387
730.43        56.96983
730.85        56.93971
731.27        56.91351
731.69        56.86976
732.10        56.76693
732.52        56.60249
732.94        56.40989
733.36         56.2596
733.78        56.14099
734.20        56.05793
734.62        56.24842
735.04        56.71959
735.46        56.32687
735.88        56.77001
736.30        56.93101
736.72        57.26717
737.13        57.50621
737.55        57.55145
737.97        57.49753
738.39        57.34855
738.81        57.03777
739.23        56.68252
739.65        56.67131
740.06        56.93643
740.48        57.07798
740.90        57.04769
741.32        57.09221
741.74        57.22269
742.16        57.32438
742.57        57.39132
742.99        57.43728
743.41        57.44462
743.83        57.37566
744.25        57.23175
744.67        57.01556
745.08         56.8129
745.50        56.74158
745.92        56.83215
746.34        57.05048
746.75         57.2835
747.17        57.33389
747.59        57.17001
748.01        56.85508
748.42        56.51829
748.84        56.38217
749.26        56.49737
749.68        56.74127
750.09         57.0121
750.51        57.25558
750.93        57.37012
751.35         57.1879
751.76        56.79591
752.18        56.53642
752.60        56.45476
753.01        56.39931
753.43        56.34197
753.85        56.32595
754.27         56.3516
754.68        56.42987
755.10        56.54913
755.52        56.68039
755.93        56.79586
756.35        56.87539
756.77         56.9771
757.18        57.06684
757.60        57.13048
758.02        57.47162
758.43        57.96171
758.85        57.33106
759.26        56.96501
759.68        56.66076
760.10        56.84568
760.51        57.14449
760.93         57.4051
761.34        57.39896
761.76        57.17347
762.18        57.12284
762.59         57.3111
763.01        57.47224
763.42        57.61132
763.84         57.6797
764.26        57.67128
764.67        57.66585
765.09        57.66142
765.50        57.38318
765.92        56.95508
766.33        56.76188
766.75        56.76302
767.16        56.70586
767.58        56.55201
768.00        56.46452
768.41        56.48956
768.83        56.69437
769.24        56.99357
769.66        57.08738
770.07        56.99723
770.49        56.97238
770.90         57.0858
771.32        57.43068
771.73        57.88028
772.15        57.99863
772.56        57.75655
772.97        57.35929
773.39        56.95897
773.80         56.7389
774.22         56.7417
774.63        56.95847
775.05        57.24039
775.46        57.40073
775.88        57.35644
776.29        57.19204
776.70        56.99328
777.12        56.91394
777.53         57.0035
777.95        57.17558
778.36        57.37966
778.77        57.50487
779.19        57.52937
779.60          57.506
780.02        57.43788
780.43         57.3754
780.84        57.34936
781.26        57.16803
781.67        56.94344
782.09        57.22106
782.50        57.84081
782.91         57.8997
783.33        57.41641
783.74        57.22716
784.15        57.35952
784.57        57.31379
784.98        57.14301
785.39        57.15783
785.81        57.37513
786.22        57.71344
786.63        58.06437
787.04        58.25371
787.46        58.25635
787.87        58.10793
788.28        57.93176
788.70        57.90612
789.11        58.04208
789.52        58.28888
789.93        58.54794
790.35        58.65037
790.76        58.56898
791.17        58.36903
791.58        58.10823
792.00        57.86193
792.41        57.68527
792.82        57.53998
793.23        57.46947
793.65        57.55841
794.06        57.79942
794.47        58.15559
794.88        58.49847
795.29        58.63944
795.71        58.51711
796.12        58.20315
796.53        57.82774
796.94        57.64964
797.35        57.74705
797.76        58.05033
798.18        58.40068
798.59        58.57281
799.00        58.48449
799.41        58.22044
799.82        57.89887
800.23        57.70932
800.64        57.70742
801.06        57.80336
801.47        57.97369
801.88        58.10566
802.29        58.15435
802.70        58.14978
803.11        58.10444
803.52        58.03386
803.93        57.96878
804.34         57.9143
804.75         57.8782
805.17        57.94752
805.58        58.17577
805.99        58.27107
806.40        58.28101
806.81        58.90326
807.22        59.83267
807.63        59.62882
808.04        58.49959
808.45        58.03861
808.86        58.37493
809.27        58.65424
809.68        58.71431
810.09        58.68834
810.50        58.53462
810.91        58.22717
811.32         57.9282
811.73        57.89174
812.14        58.16349
812.55        58.66972
812.96        59.21804
813.37         59.4402
813.78        59.23296
814.19        58.74047
814.60        58.13647
815.01        57.64979
815.42        57.34425
815.83        57.14539
816.24        57.06301
816.65        57.11633
817.05        57.29847
817.46        57.60002
817.87         57.9289
818.28        58.09249
818.69        58.05515
819.10        57.83771
819.51        57.60097
819.92        57.64912
820.33        58.04295
820.74        58.67283
821.14        59.31297
821.55        59.60214
821.96        59.45681
822.37        58.99712
822.78        58.40167
823.19        57.97397
823.60        57.82419
824.00        57.88642
824.41        58.05656
824.82        58.24009
825.23        58.37483
825.64        58.49691
826.04        58.59356
826.45        58.59946
826.86        58.52322
827.27        58.38308
827.68         58.2009
828.08        58.05329
828.49        57.92509
828.90        57.80907
829.31        57.77375
829.72        57.92617
830.12        58.28695
830.53        58.77982
830.94        59.21984
831.35        59.24744
831.75        58.80791
832.16        58.00491
832.57        57.13268
832.97        56.64444
833.38        56.65655
833.79        57.01118
834.20        57.54975
834.60         58.0135
835.01        58.31076
835.42        58.56155
835.82        58.73335
836.23        58.70037
836.64        58.49236
837.04        58.09793
837.45        57.76136
837.86        57.94979
838.26         58.7523
838.67        59.99649
839.08        61.25266
839.48        61.70235
839.89        61.13326
840.29        59.84515
840.70        58.40407
841.11        57.46207
841.51         57.2017
841.92        57.41296
842.33        57.93621
842.73         58.4881
843.14        58.85246
843.54        59.16526
843.95        59.42441
844.35        59.66587
844.76        59.87709
845.17        59.99719
845.57        60.01541
845.98        59.92146
846.38        59.74092
846.79        59.49381
847.19        59.20974
847.60        58.90781
848.00        58.61953
848.41        58.33456
848.81        58.11687
849.22        57.99255
849.62        58.00079
850.03        58.12372
850.43        58.30498
850.84        58.39362
851.24        58.38866
851.65        58.26697
852.05        58.18468
852.46         58.3282
852.86        58.72314
853.27        59.28159
853.67        59.77013
854.07         59.9678
854.48        59.82118
854.88        59.43113
855.29        58.90875
855.69        58.56696
856.10        58.45536
856.50        58.55116
856.90         58.7449
857.31        58.86525
857.71        58.89793
858.12        58.84332
858.52        58.76122
858.92        58.64921
859.33        58.50615
859.73        58.36056
860.13        58.19527
860.54        58.01062
860.94        57.85397
861.34          57.728
861.75        57.65948
862.15        57.72188
862.55        57.89765
862.96        58.11499
863.36        58.36068
863.76         58.5456
864.17        58.61792
864.57        58.63175
864.97        58.49832
865.38        58.08995
865.78        57.44655
866.18        56.62104
866.58        55.86005
866.99        55.59314
867.39        55.94114
867.79        56.76044
868.19        57.78107
868.60        58.57397
869.00        59.03672
869.40        59.24224
869.80        59.26916
870.21        59.27816
870.61        59.37842
871.01        59.46113
871.41         59.4448
871.81        59.23037
872.22        58.80368
872.62        58.20896
873.02        57.60505
873.42        57.24027
873.82        57.18449
874.22        57.38338
874.63        57.62283
875.03        57.57457
875.43        57.16501
875.83        56.50928
876.23        55.86678
876.63        55.63797
877.03        55.91251
877.44        56.53288
877.84        57.27091
878.24         57.7747
878.64        57.86755
879.04        57.48217
879.44         56.9021
879.84        56.69768
880.24        56.93981
880.64        57.40222
881.04        57.76517
881.44        57.54654
881.84        56.67192
882.24        55.37451
882.65        54.05075
883.05        53.29068
883.45        53.25468
883.85        53.75613
884.25        54.59274
884.65        55.40464
885.05        56.01799
885.45        56.51073
885.85        56.83405
886.25        56.92643
886.65        56.80495
887.05        56.45786
887.45        56.01809
887.85        55.74392
888.25        55.70322
888.65        55.84386
889.04        56.04476
889.44        56.11783
889.84        56.00602
890.24        55.78539
890.64        55.52477
891.04        55.33605
891.44        55.26226
891.84        55.26184
892.24        55.32744
892.64        55.45156
893.04        55.62577
893.44        55.86582
893.83        56.14801
894.23        56.37755
894.63        56.54501
895.03        56.63907
895.43        56.71595
895.83        56.88488
896.23        57.14431
896.63        57.43401
897.02        57.61982
897.42        57.51727
897.82        57.10066
898.22        56.48278
898.62        55.78721
899.01        55.18038
899.41        54.74565
899.81        54.44144
900.21         54.3082
900.61        54.40471
901.00        54.71074
901.40        55.19014
901.80        55.70922
902.20        56.04638
902.59         56.1512
902.99        56.07002
903.39        55.88092
903.79        55.72861
904.18        55.65524
904.58        55.61066
904.98        55.63037
905.38        55.77537
905.77        56.04263
906.17        56.44995
906.57        56.82481
906.96        56.87373
907.36        56.53545
907.76        55.89965
908.15        55.28415
908.55        55.17866
908.95         55.6853
909.34        56.65942
909.74        57.69081
910.14        58.17532
910.53        57.92522
910.93         57.1498
911.33        56.14876
911.72        55.37658
912.12        55.03147
912.52         54.9909
912.91        55.10534
913.31        55.15931
913.70        55.09789
914.10        54.96605
914.49        54.95135
914.89        55.28461
915.29         56.0034
915.68        56.99841
916.08        57.90051
916.47        58.17253
916.87        57.71946
917.26        56.71673
917.66        55.61465
918.05        54.95636
918.45        54.88419
918.84        55.29436
919.24        55.90481
919.64        56.33116
920.03        56.44879
920.42        56.33337
920.82        56.22286
921.21        56.43567
921.61        57.01128
922.00        57.84539
922.40        58.60678
922.79        58.85956
923.19        58.47539
923.58        57.66389
923.98        56.74219
924.37        56.10986
924.77        55.88827
925.16        55.91927
925.55        56.13397
925.95        56.38903
926.34        56.61288
926.74        56.83875
927.13        56.94205
927.52        56.65438
927.92        56.01136
928.31        55.09695
928.70        54.20816
929.10        53.78527
929.49        53.91117
929.89        54.41546
930.28        55.19138
930.67        55.93583
931.07        56.48394
931.46        56.97291
931.85        57.23765
932.24        57.06562
932.64        56.50584
933.03        55.59385
933.42        54.74319
933.82        54.56536
934.21        55.16555
934.60         56.4131
934.99        57.85881
935.39         58.6706
935.78        58.62916
936.17        57.88392
936.56        56.85416
936.96        56.20579
937.35         56.1212
937.74        56.41382
938.13        56.74793
938.53        56.62013
938.92        55.94254
939.31        54.93747
939.70        53.95663
940.09         53.4763
940.49        53.56868
940.88        54.09417
941.27        54.80606
941.66        55.25678
942.05        55.29831
942.44        55.08763
942.84        54.78053
943.23        54.60791
943.62        54.65309
944.01        54.79625
944.40        55.03904
944.79        55.41309
945.18        55.86681
945.57        56.37324
945.97        56.71067
946.36        56.59187
946.75        55.94516
947.14        54.94113
947.53        53.82785
947.92        52.94355
948.31        52.40759
948.70        52.15968
949.09        52.21353
949.48        52.57643
949.87        53.19714
950.26        54.03079
950.65        54.94504
951.04        55.71854
951.43        56.24687
951.82        56.53728
952.21        56.54353
952.60        56.23879
952.99        55.68373
953.38        54.93683
953.77        54.19847
954.16        53.77639
954.55        53.73506
954.94        53.98777
955.33        54.41047
955.72        54.74858
956.11        54.89822
956.50         54.9481
956.89        54.82786
957.28        54.43891
957.66        53.81009
958.05        53.00071
958.44        52.29948
958.83        52.13728
959.22        52.56907
959.61        53.48615
960.00        54.53366
960.39        55.03346
960.78        54.77898
961.16        53.96404
961.55        52.99347
961.94        52.40358
962.33        52.33818
962.72        52.67513
963.11        53.19241
963.49        53.48929
963.88        53.37725
964.27        53.00165
964.66        52.66708
965.04        52.83851
965.43        53.55519
965.82        54.70607
966.21        55.86461
966.60        56.22252
966.98        55.53533
967.37        54.14207
967.76        52.63589
968.15         51.7527
968.53        51.65087
968.92        52.16601
969.31        52.93722
969.69        53.26366
970.08        52.87208
970.47        52.00423
970.86        51.21463
971.24        51.28038
971.63         52.3436
972.02        54.20267
972.40        56.23012
972.79        56.97015
973.17        56.07495
973.56        54.06057
973.95        51.89109
974.33        50.81882
974.72        51.09608
975.11        52.34171
975.49        54.04005
975.88         55.1403
976.26        55.26849
976.65        54.70097
977.04        53.79886
977.42         53.0826
977.81        52.70189
978.19        52.47944
978.58        52.41145
978.96        52.46766
979.35        52.59693
979.74        52.85252
980.12        53.24946
980.51        53.56497
980.89        53.83381
981.28         54.0388
981.66        54.19083
982.05        54.29183
982.43        54.37335
982.82        54.40117
983.20        54.54893
983.59        55.06864
983.97        56.04237
984.35        57.34902
984.74        58.53707
985.12        59.07664
985.51        58.77039
985.89        57.84256
986.28        56.71683
986.66        55.94636
987.04        55.75277
987.43        55.95313
987.81        56.43679
988.20        56.89545
988.58        57.19054
988.96        57.33359
989.35        57.31388
989.73        57.12191
990.12        56.75331
990.50        56.23558
990.88        55.49456
991.27        54.48927
991.65        53.32063
992.03        52.09602
992.42         51.1551
992.80        50.91111
993.18        51.42747
993.56        52.61755
993.95        54.03746
994.33        54.96028
994.71        55.02824
995.10        54.49977
995.48        53.77203
995.86        53.56526
996.24        54.04057
996.63         54.8321
997.01        55.83408
997.39        56.53092
997.77        56.67741
998.15        56.57576
998.54        56.07147
998.92        54.80147
999.30        52.93449
999.68        50.61974
1000.06        48.74007
1000.45        48.54255
1000.83        50.31964
1001.21        53.86991
1001.59        58.16055
1001.97        60.64981
1002.35        60.34961
1002.73        58.01614
1003.12        55.15466
1003.50        53.68894
1003.88        54.16381
1004.26        55.92594
1004.64        58.45458
1005.02        60.59836
1005.40        61.71189
1005.78        62.24372
1006.16        61.98826
1006.54        60.59585
1006.92        58.28376
1007.30         55.2315
1007.69        52.44603
1008.07        51.19876
1008.45         51.8765
1008.83         54.2614
1009.21        57.58604
1009.59        59.81397
1009.97        59.93201
1010.35        58.46392
1010.73        56.20534
1011.11        54.34946
1011.49        53.30989
1011.86        52.76365
1012.24        52.59488
1012.62        52.69207
1013.00        52.98544
1013.38        53.53921
1013.76        54.40018
1014.14        55.46719
1014.52        56.52985
1014.90        57.45082
1015.28        57.87857
1015.66         57.4287
1016.04        56.13682
1016.41        54.18271
1016.79        52.07037
1017.17        50.81823
1017.55        50.73907
1017.93        51.47854
1018.31        52.66176
1018.69        53.75771
1019.06        54.57681
1019.44        55.31391
1019.82        55.65571
1020.20        54.98155
1020.58        53.27473
1020.95        50.81676
1021.33        48.53111
1021.71        47.33283
1022.09        47.30394
1022.46        48.32732
1022.84        49.93057
1023.22        50.78622
1023.60         50.3462
1023.97        48.91513
1024.35        47.53411
1024.73        47.24874
