SpectraSmart Spectrum 2.9.0.0
--------- Device Information -----------
Spectrum Name :  反射率_0
Saving Time :  2024/04/27 00:36:45
Spectro-Module Model Name : SE2030-DUVN
Spectro-Module Serial Number : OS361AC55029948
Wavelength Start : 200
Wavelength End : 1025
Wavelength Unit : Wavelength(nm)
Spectrum Unit : Reflectance(%)
-----------Spectrum Setting ------------
Integration Time : 20ms
Average : 10
Boxcar : 0
Background removal :  enabled
linearity correction :  enabled
SC :  disabled
Intensity correction :  disabled
DWT denoise :  enabled
savitzky-golay :  disabled
FFT :  disabled
Running average :  disabled
Kalman :  disabled
High pass :  disabled
---------------BEGIN--------------------
Wavelength(nm)             Reflectance(%)
200.29               0
200.75        43.16209
201.21        42.30136
201.67        41.99735
202.13        42.00968
202.58        42.15789
203.04        42.89299
203.50        44.03304
203.96        44.65134
204.42        44.23185
204.88         42.6862
205.34        41.08766
205.80        41.61066
206.26        44.27142
206.72        47.67402
207.18         50.4685
207.64        51.66811
208.10        51.40077
208.55        50.48977
209.01        48.20348
209.47         45.1505
209.93        43.19363
210.39        42.42257
210.85        43.18641
211.31        46.32018
211.77        53.13936
212.23        68.48174
212.69        105.9524
213.14        165.8329
213.60        157.1571
214.06        110.1315
214.52        79.64548
214.98        65.94842
215.44        59.77761
215.90        55.97674
216.36        53.86109
216.81        53.14425
217.27        54.03999
217.73        58.14988
218.19        64.25603
218.65        65.18314
219.11        59.35981
219.57        51.26848
220.02        46.65184
220.48        49.02541
220.94        58.18916
221.40        75.66766
221.86        99.72771
222.32        111.3838
222.77        97.67133
223.23        72.63487
223.69        51.47838
224.15        42.16752
224.61        41.71527
225.06        45.21298
225.52        49.48436
225.98        51.37284
226.44        50.63024
226.90        48.57513
227.36        46.02448
227.81        44.22483
228.27         43.6701
228.73         43.6227
229.19        43.79026
229.65        43.92242
230.10        43.92677
230.56        44.05191
231.02        44.10265
231.48        43.73828
231.93        42.96212
232.39        42.08627
232.85        41.49964
233.31         41.8378
233.77        43.06816
234.22        44.92618
234.68          46.911
235.14        48.33204
235.60        48.99314
236.05        49.20226
236.51        48.96198
236.97        48.36313
237.43        47.59201
237.88        46.62951
238.34        46.15648
238.80        47.58411
239.26        51.51497
239.71        58.66839
240.17        68.12858
240.63        76.37357
241.08        80.82853
241.54        80.52146
242.00        78.10524
242.46        80.29123
242.91        91.66884
243.37         114.388
243.83        149.6423
244.28        182.0329
244.74        187.2613
245.20        164.1709
245.66         132.875
246.11        112.1838
246.57        103.4254
247.03        101.4897
247.48        100.5414
247.94        92.86549
248.40        80.83817
248.85        69.57903
249.31        62.61913
249.77        61.47429
250.22        65.41283
250.68        73.87513
251.14        85.26082
251.59        92.33347
252.05        90.80313
252.51         84.2671
252.96         76.1629
253.42        70.28342
253.88        66.98082
254.33        64.60805
254.79        64.47804
255.25        67.41982
255.70        72.75563
256.16         79.9978
256.62        85.92454
257.07        85.66798
257.53        80.87903
257.99        74.68266
258.44        69.51828
258.90        67.71893
259.35        68.13884
259.81        69.89501
260.27        71.65657
260.72        71.90026
261.18        70.79631
261.63        68.73599
262.09         66.7402
262.55          65.278
263.00        64.24867
263.46        63.57376
263.91        62.68674
264.37        61.26632
264.83        59.31913
265.28         57.0769
265.74        55.11475
266.19        53.79079
266.65        53.18677
267.11        52.99586
267.56        52.93536
268.02        52.57713
268.47        51.79241
268.93        50.77444
269.38        49.54641
269.84        48.20551
270.30        46.81406
270.75        45.34142
271.21        44.02505
271.66        43.16381
272.12        42.78949
272.57        42.78017
273.03        42.83006
273.48        42.42327
273.94         41.5084
274.39        40.22659
274.85        38.91504
275.31        37.89701
275.76        37.22157
276.22        36.80638
276.67        36.48417
277.13        36.12512
277.58        35.62789
278.04        35.06683
278.49        34.44433
278.95        33.87848
279.40         33.3378
279.86        32.86721
280.31        32.33762
280.77         31.6829
281.22        30.88277
281.68        30.05696
282.13        29.33055
282.59        28.95951
283.04        28.92863
283.50        29.16186
283.95        29.48145
284.41        29.61551
284.86        29.48898
285.32        29.21892
285.77        28.89661
286.22        28.71871
286.68        28.72894
287.13        28.82004
287.59        28.96741
288.04        29.09097
288.50        29.18117
288.95        29.23605
289.41        29.25143
289.86        29.14358
290.32        28.95804
290.77        28.71878
291.22        28.52576
291.68          28.512
292.13        28.70732
292.59        29.10823
293.04        29.68922
293.50        30.41829
293.95        31.26922
294.40        32.26093
294.86         33.3778
295.31          34.583
295.77        35.86964
296.22        37.20902
296.68        38.62852
297.13        40.16392
297.58        41.82164
298.04        43.58693
298.49        45.38767
298.95        47.13279
299.40        48.78684
299.85        50.37753
300.31         51.9797
300.76        53.68824
301.21        55.52966
301.67        57.48595
302.12        59.45499
302.58        61.36823
303.03        63.16713
303.48        64.92326
303.94        66.71021
304.39        68.56583
304.84        70.53163
305.30         72.5832
305.75        74.66566
306.20        76.79315
306.66        78.94987
307.11        81.07761
307.57        83.11378
308.02        84.85138
308.47        86.29788
308.93        87.52736
309.38         88.6593
309.83        90.00105
310.29        91.62048
310.74        93.42432
311.19        95.23546
311.65        96.72874
312.10        97.79137
312.55        98.50879
313.00        99.07137
313.46         99.7822
313.91        100.6966
314.36         101.761
314.82        102.8049
315.27        103.5742
315.72        103.9916
316.18         104.171
316.63        104.2799
317.08        104.6235
317.53        105.2727
317.99        106.1241
318.44         107.007
318.89        107.6115
319.35        107.8543
319.80        107.8358
320.25        107.7296
320.70        107.8148
321.16        108.1647
321.61        108.7364
322.06        109.3685
322.51        109.8092
322.97        109.9736
323.42        109.9355
323.87        109.8884
324.32        110.1663
324.78        110.7971
325.23        111.7588
325.68         112.679
326.13        112.9547
326.59        112.4614
327.04        111.4296
327.49         110.339
327.94        109.9703
328.39        110.5097
328.85        111.6943
329.30        113.2152
329.75         114.236
330.20        114.4783
330.66        114.1531
331.11        113.6304
331.56         113.431
332.01        113.7267
332.46        114.3164
332.92        114.9851
333.37        115.5558
333.82        115.8769
334.27        116.0868
334.72        116.2145
335.17         116.272
335.63        116.2938
336.08        116.3263
336.53        116.4975
336.98        117.0779
337.43        118.1019
337.88        119.4615
338.34        120.9119
338.79        122.1566
339.24        123.0048
339.69        123.5295
340.14        123.7471
340.59        123.7201
341.05         123.552
341.50        123.2395
341.95        122.9669
342.40        123.0141
342.85         123.444
343.30         124.195
343.75        125.1158
344.20        125.9253
344.66         126.526
345.11        126.9773
345.56        127.3047
346.01         127.568
346.46        127.8084
346.91        128.0057
347.36         128.194
347.81        128.4505
348.26        128.7711
348.72          129.11
349.17        129.4371
349.62        129.7379
350.07        129.9872
350.52        130.2187
350.97        130.2709
351.42        129.8923
351.87        129.0924
352.32        127.9775
352.77        126.9345
353.22        126.5233
353.67        126.8306
354.13        127.6844
354.58          128.67
355.03        129.0408
355.48        128.5999
355.93        127.5605
356.38        126.3522
356.83         125.632
357.28        125.5286
357.73        125.7988
358.18        126.0761
358.63        125.7843
359.08        124.7872
359.53        123.3204
359.98        121.6702
360.43        120.2286
360.88        119.1099
361.33         118.196
361.78         117.388
362.23        116.5433
362.68        115.6246
363.13        114.7058
363.58         113.826
364.03        113.0181
364.48        112.2793
364.93        111.5658
365.38        110.8533
365.83        110.1281
366.28        109.3846
366.73        108.6319
367.18        107.8612
367.63         107.052
368.08        106.2072
368.53        105.3422
368.98        104.4854
369.43        103.6782
369.88        102.9309
370.33        102.2289
370.78        101.5622
371.23        100.9204
371.68         100.293
372.13        99.67487
372.58        99.05052
373.03        98.39111
373.48        97.68698
373.93        96.94664
374.38        96.16908
374.83        95.36453
375.28        94.54693
375.72        93.69614
376.17        92.90908
376.62         92.2138
377.07        91.62654
377.52        91.16515
377.97        90.75578
378.42        90.29008
378.87        89.75047
379.32        89.13256
379.77        88.60174
380.22        88.40314
380.67        88.54161
381.11        88.96622
381.56        89.28514
382.01        88.94131
382.46        87.86768
382.91        86.32276
383.36        84.78972
383.81        83.92867
384.26        83.84492
384.71        84.30685
385.15        85.00654
385.60         85.4037
386.05        85.31963
386.50         84.9133
386.95        84.28675
387.40        83.60715
387.85        82.96007
388.29        82.24194
388.74        81.61015
389.19        81.07803
389.64        80.64441
390.09        80.31584
390.54        80.03432
390.98        79.67419
391.43        79.26046
391.88        78.81606
392.33        78.42091
392.78        78.16167
393.23        78.03471
393.67        78.03338
394.12        78.12186
394.57        77.91474
395.02        77.46593
395.47        77.22597
395.91        77.19009
396.36        76.94768
396.81        76.52528
397.26        76.17605
397.71        75.92233
398.15        75.65668
398.60         75.4598
399.05        75.27154
399.50        75.10224
399.95        75.02264
400.39        75.00806
400.84         74.8718
401.29        74.60014
401.74        74.29113
402.18        73.96609
402.63        73.54678
403.08        73.14196
403.53        72.91706
403.97        72.88216
404.42        72.98867
404.87        73.12892
405.32        73.06808
405.76        72.74515
406.21        72.42669
406.66        72.15511
407.11        71.63414
407.55        71.10177
408.00        71.33585
408.45        72.17853
408.90        72.57894
409.34        72.33475
409.79         71.8182
410.24        71.23429
410.68        70.84226
411.13          70.719
411.58        70.69508
412.03        70.68054
412.47        70.61263
412.92        70.44066
413.37        70.22363
413.81        70.01453
414.26        69.95688
414.71        70.04557
415.15        70.25337
415.60        70.49962
416.05        70.72966
416.49        70.91024
416.94        71.04073
417.39        71.11589
417.83        71.11425
418.28         71.0498
418.73        70.93346
419.17        70.80824
419.62        70.74965
420.07        70.76035
420.51        70.79001
420.96        70.85207
421.41        70.85403
421.85        70.75037
422.30        70.79034
422.74        70.83373
423.19        70.44975
423.64        69.76187
424.08        69.56468
424.53        69.87962
424.98        70.06351
425.42        70.08265
425.87        70.46046
426.31        71.03332
426.76        70.92186
427.21        70.26495
427.65         70.0758
428.10        70.33902
428.54        70.39981
428.99        70.29356
429.44        70.07484
429.88        69.96297
430.33        70.64037
430.77        71.71817
431.22        72.34271
431.66        72.29353
432.11        71.41636
432.56        70.14239
433.00        69.81756
433.45         70.6148
433.89         71.4355
434.34        71.54527
434.78        72.33501
435.23        71.21989
435.67        69.54549
436.12        70.09407
436.57        70.38242
437.01        71.07102
437.46        71.40792
437.90        71.40834
438.35        70.33043
438.79        70.60069
439.24         70.3928
439.68        70.36572
440.13        70.71527
440.57         71.3261
441.02        71.18316
441.46        70.46686
441.91         71.0418
442.35         72.4001
442.80         72.2852
443.24        70.96901
443.69        70.88058
444.13        71.90307
444.58        72.37557
445.02        71.84918
445.47        71.65334
445.91        71.75452
446.36        71.87765
446.80        72.01379
447.24        72.22877
447.69        72.45268
448.13        72.54797
448.58        72.50518
449.02        72.33443
449.47         72.1137
449.91        71.94019
450.36        71.86969
450.80        71.85431
451.25        71.89592
451.69        71.93626
452.13        71.97805
452.58        72.03364
453.02        72.10265
453.47        72.18914
453.91        72.27016
454.36        72.33694
454.80        72.37386
455.24        72.24676
455.69        71.94415
456.13        71.77206
456.58        71.71484
457.02        70.95384
457.46        70.41766
457.91        70.55116
458.35        71.27299
458.79        71.33256
459.24         70.7296
459.68        70.01053
460.13        69.47585
460.57        69.34449
461.01        69.73765
461.46         69.9878
461.90         70.9539
462.34        71.35622
462.79        70.87973
463.23        71.11404
463.68         71.6943
464.12        71.62644
464.56        70.88129
465.01        69.99261
465.45        69.19611
465.89         69.0161
466.34        69.32223
466.78        69.52396
467.22        69.52528
467.67        69.09542
468.11        68.78114
468.55        68.89851
468.99        69.43962
469.44        69.53982
469.88        69.16426
470.32        68.83717
470.77        68.65228
471.21        68.51504
471.65        68.44418
472.10        68.47493
472.54        68.55393
472.98        68.57599
473.42        68.51108
473.87        68.49031
474.31        68.45972
474.75        68.20422
475.20        67.83858
475.64        67.79691
476.08        68.08557
476.52         68.1257
476.97        67.82887
477.41        67.98611
477.85        68.40704
478.29        67.67931
478.74        67.79191
479.18        68.44667
479.62        68.16193
480.06        68.21931
480.50        68.00704
480.95        67.78488
481.39        67.60453
481.83        67.37281
482.27        67.39728
482.72        67.77573
483.16        67.46072
483.60        67.55376
484.04        67.69444
484.48        67.93793
484.93        68.10662
485.37        67.88564
485.81        67.17295
486.25        67.11727
486.69        69.19606
487.14        69.78293
487.58        67.06996
488.02        67.90034
488.46        66.89706
488.90        66.79288
489.34        67.64623
489.79        68.47657
490.23        67.98139
490.67        67.55563
491.11        67.00609
491.55         66.8657
491.99        67.07821
492.43        66.99265
492.88        66.62799
493.32        66.50919
493.76        66.63908
494.20        66.71931
494.64        66.71911
495.08        66.70736
495.52        66.69416
495.96        66.70646
496.41        66.73195
496.85        66.76424
497.29        66.66956
497.73        66.62581
498.17        65.88416
498.61        65.75344
499.05         66.0086
499.49         66.3327
499.93        66.32011
500.37        66.34756
500.82        66.46394
501.26        65.74522
501.70        66.17339
502.14        66.39485
502.58        66.37432
503.02        66.52194
503.46        66.65395
503.90        66.80372
504.34        66.89434
504.78        66.82355
505.22        66.56657
505.66        66.22917
506.10        65.93302
506.54        65.63721
506.98        65.33348
507.42        65.84655
507.86        65.71901
508.30        65.75345
508.74        65.88097
509.18        65.85941
509.62        65.80853
510.06        65.75597
510.50        65.72903
510.94         65.6899
511.38        65.65383
511.82        65.65936
512.26         65.7099
512.70        65.80399
513.14        65.90379
513.58        65.94358
514.02        65.91157
514.46        65.82395
514.90        65.73525
515.34         65.7361
515.78        65.83939
516.22         66.0073
516.66        66.17369
517.10        66.23331
517.54        66.16256
517.98        66.00481
518.42        65.80249
518.86        65.62286
519.30        65.49538
519.74        65.40064
520.18        65.35574
520.62        65.38507
521.06        65.48501
521.50        65.65372
521.93        65.83791
522.37        65.92538
522.81        65.89985
523.25        65.78182
523.69        65.64152
524.13         65.5955
524.57        65.66329
525.01        65.80098
525.45        65.93707
525.89        65.95555
526.32        65.82514
526.76        65.61368
527.20        65.36851
527.64        65.16651
528.08        65.03782
528.52        64.95647
528.96        64.93605
529.40        64.99809
529.83        65.12966
530.27          65.329
530.71         65.5252
531.15        65.60925
531.59        65.56069
532.03        65.40744
532.46        65.21021
532.90        65.11671
533.34        65.14542
533.78        65.21179
534.22        65.27064
534.66        65.33237
535.09        65.33001
535.53        65.14355
535.97        64.81294
536.41        64.56687
536.85        64.43767
537.28        64.30792
537.72        64.21815
538.16        64.27578
538.60        64.47634
539.04        64.80103
539.47        65.13497
539.91        65.29497
540.35        65.25674
540.79        65.16819
541.22        65.07925
541.66        65.00066
542.10        64.95535
542.54        64.97781
542.97        65.02094
543.41        65.01337
543.85        64.93349
544.29        64.81888
544.72        64.70373
545.16        64.65968
545.60        64.68723
546.04         64.8122
546.47        64.98755
546.91        65.04317
547.35        65.00789
547.79        65.08629
548.22        65.25102
548.66        65.36255
549.10        65.42644
549.53        65.28156
549.97        65.00121
550.41        64.74731
550.84        64.61464
551.28        64.63431
551.72         64.7617
552.15        64.91138
552.59        65.07574
553.03        64.80639
553.46        65.22765
553.90        64.86156
554.34        65.06162
554.77        64.93108
555.21        64.85346
555.65        64.87133
556.08        64.96963
556.52        65.21034
556.96        65.46523
557.39         65.2923
557.83        65.07509
558.27        64.72922
558.70        64.44717
559.14        64.31197
559.57        64.31252
560.01        64.35717
560.45        64.41808
560.88        64.56956
561.32        64.80376
561.75        64.95937
562.19        65.03004
562.63         65.0764
563.06        65.10361
563.50        65.03609
563.93        64.86987
564.37        64.94527
564.80        65.20869
565.24        65.06159
565.68        64.43669
566.11        64.99083
566.55        64.41061
566.98         64.3487
567.42        64.23627
567.85        64.39674
568.29         64.8104
568.72        65.24675
569.16        65.68311
569.60        65.91115
570.03            65.9
570.47        65.91588
570.90        66.08012
571.34        65.28088
571.77        65.81851
572.21        66.01936
572.64        66.02719
573.08        66.26995
573.51        65.51028
573.95        65.56943
574.38        66.24306
574.82        66.18373
575.25        65.70668
575.69        65.95201
576.12        66.33897
576.56        65.29313
576.99        65.62791
577.42        65.70231
577.86        65.60539
578.29         66.7569
578.73        66.62355
579.16        66.48812
579.60        65.73991
580.03        65.73674
580.47        65.60381
580.90        66.50605
581.33        66.65688
581.77        66.58753
582.20        66.70467
582.64        67.12426
583.07        66.51082
583.51        65.75957
583.94        65.94172
584.37        65.98198
584.81        66.24844
585.24        66.35873
585.68        66.24911
586.11        66.27978
586.54        66.20255
586.98        65.60828
587.41        64.86526
587.85         65.7521
588.28        65.56108
588.71         65.6375
589.15        65.04217
589.58        65.76546
590.01        65.23595
590.45        65.03414
590.88        66.12794
591.31        65.96011
591.75        65.26224
592.18        64.75573
592.61        64.64453
593.05        65.75983
593.48        66.44061
593.91        66.19389
594.35        65.93302
594.78        65.15237
595.21        64.67949
595.65        65.03467
596.08        66.26617
596.51        66.22605
596.94        65.50117
597.38        65.18439
597.81        65.47014
598.24        65.84029
598.68        65.57143
599.11        65.25304
599.54        66.42139
599.97        66.17137
600.41        65.63958
600.84         65.0309
601.27         65.4528
601.70        65.62981
602.14        65.65963
602.57        65.41341
603.00        65.30038
603.43        64.83411
603.87        65.66399
604.30         65.9341
604.73        65.54132
605.16        64.80927
605.60        64.96053
606.03        64.80759
606.46        64.78101
606.89         64.7686
607.32        65.22513
607.76        64.77131
608.19        65.23134
608.62        65.11829
609.05        65.05329
609.48        65.02526
609.92        65.87394
610.35        65.59496
610.78        65.14874
611.21        64.93018
611.64        64.95451
612.07        65.21651
612.50        65.23173
612.94        65.29417
613.37        65.25758
613.80         65.0004
614.23        64.50058
614.66         64.4557
615.09        64.79282
615.52        64.92648
615.96        64.79708
616.39        64.83216
616.82        65.05167
617.25        64.78378
617.68        64.73181
618.11        64.77522
618.54        65.04414
618.97        65.04002
619.40        64.74374
619.84        64.65095
620.27        64.25412
620.70        64.35902
621.13        64.64897
621.56        64.36135
621.99        63.60768
622.42         63.4105
622.85        63.80527
623.28        64.01083
623.71        63.95314
624.14        64.28501
624.57        64.33364
625.00        64.45629
625.43        64.40835
625.86        64.28965
626.29        64.20868
626.72        63.63532
627.15        64.03449
627.58        64.10906
628.01        64.15621
628.44        64.37012
628.87        64.12419
629.30         63.8609
629.73        63.96674
630.16         63.9463
630.59        63.96757
631.02        64.09548
631.45        64.30099
631.88        64.42428
632.31        64.42538
632.74        64.40604
633.17        64.39737
633.60        64.14665
634.03         64.1572
634.46         64.0228
634.89        63.89853
635.32        63.80695
635.75        63.76198
636.18        63.68954
636.61        63.60421
637.04        63.57584
637.47        63.59869
637.89        63.66233
638.32        63.73053
638.75        63.73791
639.18        63.66024
639.61        63.78114
640.04        63.62904
640.47        63.61029
640.90        63.59128
641.33        63.58537
641.76        63.58766
642.18        63.60794
642.61        63.62968
643.04        63.64863
643.47        63.67787
643.90        63.73775
644.33        63.82244
644.76        63.92362
645.18        63.99273
645.61        63.93312
646.04        63.74487
646.47         63.4729
646.90        63.19982
647.33        63.04461
647.75         63.0109
648.18         63.1246
648.61         63.3745
649.04        63.45948
649.47        63.29466
649.89        64.00758
650.32        63.83554
650.75        63.74779
651.18        63.37717
651.61        63.36477
652.03        63.72544
652.46        63.98792
652.89        64.03372
653.32         63.9573
653.74        63.97322
654.17        63.30324
654.60        63.72636
655.03        63.79612
655.46        63.03365
655.88        63.02168
656.31        66.80634
656.74        69.93889
657.16        68.56222
657.59        67.47166
658.02         65.1919
658.45        64.59119
658.87         63.9017
659.30        64.08558
659.73        64.04013
660.15        64.77339
660.58        63.74442
661.01        63.52667
661.44        63.51495
661.86        63.42484
662.29        63.18683
662.72         63.6778
663.14        63.59891
663.57        63.45001
664.00        63.02861
664.42        62.98578
664.85        63.35534
665.27        63.79247
665.70        64.11174
666.13        64.22742
666.55        64.09928
666.98        63.69056
667.41         63.1341
667.83        63.06089
668.26        62.87398
668.69        63.03146
669.11        63.27879
669.54        63.49427
669.96        63.62935
670.39        63.78887
670.82        63.95368
671.24        63.88728
671.67        63.66883
672.09        63.67789
672.52        63.89508
672.94        63.92794
673.37        63.77179
673.80        63.64871
674.22        63.59455
674.65        63.52503
675.07        63.46394
675.50         63.4242
675.92        63.39975
676.35        63.36654
676.77        63.32162
677.20        63.26476
677.62        63.21693
678.05        63.21102
678.47        63.25182
678.90        63.33868
679.32        63.42994
679.75        63.47368
680.17        63.45161
680.60        63.37248
681.02        63.29376
681.45        63.31063
681.87        63.45097
682.30        63.68913
682.72        63.91584
683.15         64.0582
683.57         63.6735
684.00        63.58579
684.42        63.69576
684.85        63.75911
685.27        63.77105
685.70        63.93678
686.12        64.17892
686.54        64.24213
686.97        64.11436
687.39        63.95641
687.82        63.81285
688.24        63.69511
688.66        63.62939
689.09        63.63585
689.51        63.70359
689.94        63.76892
690.36        63.82209
690.78        63.84686
691.21        63.86836
691.63        63.95512
692.06        64.09433
692.48        64.19813
692.90        64.21626
693.33        64.15539
693.75        64.00879
694.17        63.72271
694.60        63.43154
695.02        63.37418
695.44        63.55961
695.87        63.95643
696.29        64.39049
696.71        64.30206
697.14        63.78779
697.56        63.59024
697.98        63.76944
698.41        63.83437
698.83        63.78315
699.25         63.9749
699.68        64.29133
700.10        64.40945
700.52        64.26319
700.94        63.96262
701.37        63.64212
701.79        63.52185
702.21        63.64635
702.64        63.92705
703.06        64.25072
703.48        64.41908
703.90         64.3768
704.33        64.19154
704.75        63.94186
705.17        63.74383
705.59        63.64682
706.01        63.61379
706.44        63.63952
706.86        63.74671
707.28         63.9146
707.70        64.10539
708.12         64.2932
708.55        64.50279
708.97         64.6795
709.39        64.63081
709.81        64.41196
710.23        64.32196
710.66        64.39572
711.08        64.49882
711.50        64.56033
711.92        64.54488
712.34        64.44096
712.76        64.27836
713.19        64.10117
713.61        64.01717
714.03        64.04151
714.45        64.14692
714.87        64.31682
715.29        64.52786
715.71        64.75498
716.13        64.98546
716.56         65.1656
716.98        65.29483
717.40        65.32653
717.82        65.26994
718.24        65.12297
718.66        64.88654
719.08        64.59458
719.50        64.28426
719.92        64.02574
720.34        63.91679
720.76        63.97486
721.19        64.14425
721.61        64.41923
722.03        64.73723
722.45        65.04777
722.87        65.34383
723.29        65.53668
723.71        65.48952
724.13        65.19553
724.55        64.72232
724.97         64.2226
725.39        63.88487
725.81        63.76611
726.23        63.91214
726.65        64.29964
727.07        64.35564
727.49        64.86192
727.91        65.16836
728.33        65.46556
728.75        65.63723
729.17        65.66567
729.59        65.54637
730.01        65.34515
730.43        65.21282
730.85        65.18446
731.27         65.2245
731.69        65.27605
732.10         65.2423
732.52        65.10209
732.94        64.90878
733.36        64.73055
733.78        64.55269
734.20        64.38956
734.62        64.46515
735.04        64.83268
735.46        64.39247
735.88        65.05022
736.30        65.19734
736.72        65.38268
737.13        65.69366
737.55        66.00171
737.97        66.00806
738.39        65.73848
738.81        65.48616
739.23        65.35598
739.65        65.45732
740.06        65.69633
740.48        65.81802
740.90        65.77111
741.32        65.73299
741.74        65.73976
742.16        65.75622
742.57        65.79417
742.99        65.84664
743.41        65.88034
743.83        65.82268
744.25        65.66833
744.67        65.44342
745.08        65.23123
745.50        65.13863
745.92        65.19819
746.34        65.36812
746.75        65.58089
747.17        65.69886
747.59         65.6925
748.01        65.64656
748.42        65.58869
748.84        65.47964
749.26        65.39086
749.68        65.46539
750.09        65.66192
750.51        65.85271
750.93        65.92825
751.35        65.76001
751.76        65.41238
752.18        65.10987
752.60        64.86302
753.01        64.93052
753.43        64.58893
753.85        64.54681
754.27        64.60313
754.68        64.75637
755.10        64.96177
755.52         65.1517
755.93        65.30304
756.35        65.38816
756.77        65.47152
757.18        65.56154
757.60        65.67388
758.02         65.9886
758.43        66.33884
758.85        65.88557
759.26        65.71385
759.68        64.97341
760.10        65.14944
760.51        65.70991
760.93        65.78869
761.34        65.91779
761.76        65.79774
762.18        65.81717
762.59        65.99943
763.01        66.05015
763.42        66.04083
763.84        66.03289
764.26         66.0466
764.67        66.14205
765.09        66.26419
765.50        65.96635
765.92         65.4215
766.33        65.26402
766.75        65.42966
767.16        65.47892
767.58        65.35912
768.00        65.21459
768.41        65.16236
768.83        65.65076
769.24        66.44147
769.66          66.479
770.07        65.85874
770.49        65.57102
770.90        65.73579
771.32        66.05746
771.73        66.40953
772.15        66.52134
772.56        66.36743
772.97        66.11246
773.39        65.87318
773.80         65.7665
774.22        65.81144
774.63        66.03049
775.05        66.27598
775.46        66.37274
775.88        66.24997
776.29        65.99478
776.70        65.73031
777.12        65.67476
777.53        65.88046
777.95        66.22746
778.36        66.61431
778.77        66.82213
779.19        66.80991
779.60        66.71207
780.02        66.53596
780.43        66.29593
780.84        66.09639
781.26        65.78705
781.67        65.53953
782.09        66.14269
782.50        67.27177
782.91        67.37284
783.33        66.49826
783.74         66.1471
784.15        66.38152
784.57        66.28757
784.98        65.93667
785.39        65.87856
785.81        66.14314
786.22        66.57911
786.63        67.03943
787.04        67.28663
787.46        67.27679
787.87         67.0718
788.28         66.8152
788.70        66.70158
789.11        66.76042
789.52        66.96009
789.93        67.20372
790.35        67.32295
790.76        67.27666
791.17        67.10538
791.58        66.91692
792.00        66.77875
792.41        66.72983
792.82        66.98542
793.23         67.3906
793.65        67.09724
794.06        66.34857
794.47        66.54067
794.88        67.50855
795.29         67.8553
795.71        67.48383
796.12        67.33373
796.53        67.44057
796.94         67.1456
797.35        66.60827
797.76        66.72247
798.18        67.37395
798.59         67.6675
799.00        67.50813
799.41        67.39524
799.82        67.39263
800.23        67.38464
800.64        67.38496
801.06        67.37764
801.47        67.39211
801.88        67.39496
802.29        67.37535
802.70        67.34196
803.11        67.27095
803.52         67.1249
803.93        66.92242
804.34        66.68645
804.75        66.49564
805.17        66.52687
805.58        66.84713
805.99        67.18438
806.40        67.47234
806.81        68.07306
807.22        68.70691
807.63        68.32728
808.04        67.17441
808.45        66.59835
808.86        66.74497
809.27        66.92715
809.68        67.00733
810.09        67.06057
810.50        67.03764
810.91        66.93193
811.32          66.846
811.73        66.93603
812.14        67.22558
812.55         67.6528
812.96        68.08373
813.37        68.27161
813.78        68.14491
814.19        67.80286
814.60        67.35847
815.01        66.95731
815.42         66.6448
815.83        66.37649
816.24        66.18636
816.65        66.13973
817.05        66.25449
817.46        66.50288
817.87        66.79786
818.28        66.94785
818.69        66.91306
819.10        66.71949
819.51        66.51271
819.92        66.56489
820.33        66.93018
820.74        67.50737
821.14         68.0932
821.55        68.36224
821.96        68.24162
822.37        67.84158
822.78        67.32758
823.19        66.97915
823.60        66.89773
824.00        67.02824
824.41        67.25984
824.82        67.50495
825.23        67.69748
825.64        67.85871
826.04        67.98083
826.45        68.00552
826.86        67.94224
827.27        67.81329
827.68        67.60893
828.08        67.35406
828.49        67.02862
828.90        66.65341
829.31          66.372
829.72        66.41061
830.12        66.82166
830.53        67.48994
830.94        68.16127
831.35        68.34561
831.75        67.94325
832.16        67.08654
832.57        66.11189
832.97        65.54042
833.38        65.51519
833.79        65.85842
834.20         66.4005
834.60        66.86971
835.01         67.1684
835.42        67.42309
835.82         67.6165
836.23        67.63268
836.64        67.50054
837.04        67.19716
837.45        66.92874
837.86        67.11201
838.26        67.82999
838.67        68.92268
839.08        70.00351
839.48        70.32743
839.89        69.71333
840.29        68.44952
840.70        67.09137
841.11        66.26001
841.51         66.1268
841.92        66.47354
842.33        67.14738
842.73        67.87608
843.14        68.41351
843.54        68.88237
843.95        69.21779
844.35        69.37172
844.76        69.33015
845.17        69.08588
845.57        68.72273
845.98        68.37591
846.38        68.12947
846.79        67.96967
847.19        67.90786
847.60        67.92342
848.00        68.00848
848.41         68.1338
848.81        68.30708
849.22        68.45332
849.62        68.58261
850.03        68.68967
850.43        68.73872
850.84        68.61482
851.24        68.35963
851.65        67.95126
852.05         67.6282
852.46         67.6954
852.86        68.20011
853.27        69.00518
853.67        69.78307
854.07        70.19985
854.48        70.16291
854.88         69.8075
855.29        69.21906
855.69        68.69767
856.10         68.2983
856.50        68.01492
856.90        67.82521
857.31        67.71271
857.71        67.70519
858.12        67.76022
858.52        67.85786
858.92        67.82757
859.33        67.62006
859.73         67.3335
860.13        66.97244
860.54        66.58382
860.94        66.24744
861.34        65.92385
861.75        65.73067
862.15        65.89943
862.55        66.42449
862.96        67.20527
863.36        68.00505
863.76        68.33257
864.17        68.05629
864.57        67.34967
864.97        66.44974
865.38        65.74702
865.78        65.39847
866.18        65.30381
866.58        65.41045
866.99        65.61158
867.39        65.86444
867.79        66.19007
868.19        66.55779
868.60        66.88656
869.00        67.17802
869.40        67.40166
869.80         67.5329
870.21         67.5527
870.61        67.52541
871.01        67.42967
871.41        67.27042
871.81        67.04832
872.22        66.76814
872.62        66.42727
873.02        66.13197
873.42        66.04588
873.82         66.1965
874.22        66.54233
874.63        66.88406
875.03        66.92107
875.43        66.58689
875.83        65.98058
876.23        65.34866
876.63        65.07746
877.03        65.25379
877.44        65.73029
877.84        66.30836
878.24        66.65852
878.64         66.6292
879.04        66.19286
879.44        65.59042
879.84        65.29091
880.24         65.3629
880.64        65.62643
881.04        65.83591
881.44        65.63097
881.84        64.94749
882.24         63.9435
882.65        62.93715
883.05        62.39517
883.45        62.44505
883.85        62.96884
884.25        63.72216
884.65         64.2823
885.05        64.50877
885.45        64.49982
885.85        64.44912
886.25        64.66434
886.65        65.20011
887.05        65.92986
887.45        66.61881
887.85        66.89671
888.25        66.67352
888.65        66.08224
889.04        65.36433
889.44        64.91548
889.84        64.82632
890.24        64.98748
890.64        65.23418
891.04        65.29285
891.44        65.09553
891.84         64.7598
892.24        64.40321
892.64         64.1814
893.04        64.14943
893.44         64.2636
893.83        64.50136
894.23        64.78178
894.63        65.08308
895.03         65.3887
895.43        65.71645
895.83         66.1001
896.23        66.50821
896.63         66.8903
897.02        67.09613
897.42         66.9298
897.82        66.38094
898.22        65.57161
898.62        64.69611
899.01        64.02709
899.41        63.66582
899.81        63.53553
900.21        63.60028
900.61         63.7871
901.00        64.04305
901.40        64.37747
901.80        64.70722
902.20        64.89226
902.59        64.91628
902.99        64.80004
903.39        64.62897
903.79        64.55912
904.18        64.61925
904.58        64.75245
904.98        64.95551
905.38        65.22827
905.77        65.55779
906.17        65.98463
906.57        66.35124
906.96        66.39482
907.36        66.06827
907.76        65.44975
908.15        64.89272
908.55         64.9435
908.95        65.70094
909.34        66.99454
909.74        68.31932
910.14        68.92324
910.53        68.58012
910.93        67.54951
911.33        66.20653
911.72        65.12349
912.12        64.55424
912.52        64.35487
912.91        64.37159
913.31        64.38643
913.70           64.33
914.10        64.24255
914.49        64.30505
914.89        64.71466
915.29        65.49903
915.68        66.56107
916.08        67.48875
916.47        67.69351
916.87        67.08982
917.26        65.87373
917.66        64.60513
918.05        63.97367
918.45        64.13674
918.84        64.93262
919.24         65.9557
919.64        66.61308
920.03        66.70786
920.42        66.37189
920.82         65.9145
921.21        65.76015
921.61        65.99603
922.00        66.51468
922.40        67.00706
922.79         67.0973
923.19        66.67492
923.58        65.93944
923.98        65.20185
924.37        64.83403
924.77        64.93507
925.16         65.3343
925.55        65.88513
925.95        66.31341
926.34        66.52048
926.74        66.57022
927.13        66.43044
927.52         65.9878
927.92        65.32387
928.31        64.47458
928.70        63.69008
929.10        63.33175
929.49        63.45148
929.89        63.89608
930.28        64.57117
930.67        65.17389
931.07        65.55699
931.46        65.88921
931.85         65.9985
932.24        65.67204
932.64        64.97095
933.03        63.91291
933.42        63.01578
933.82        63.04226
934.21        64.10667
934.60        66.05278
934.99        68.18106
935.39         69.2088
935.78        68.81787
936.17        67.26577
936.56         65.3603
936.96        64.39752
937.35        64.69543
937.74        65.87278
938.13        67.19553
938.53        67.50744
938.92        66.56738
939.31        64.84153
939.70        63.00529
940.09        62.00478
940.49        62.02792
940.88        62.77267
941.27        63.86029
941.66        64.60983
942.05        64.78257
942.44        64.65163
942.84        64.35844
943.23        64.09769
943.62        63.96983
944.01        63.81837
944.40        63.82512
944.79        64.33776
945.18        65.34966
945.57         66.7615
945.97        68.00008
946.36        68.16934
946.75        67.07066
947.14        65.09673
947.53        62.93621
947.92        61.57509
948.31        61.26412
948.70        61.72529
949.09        62.68321
949.48        63.64473
949.87        64.37466
950.26        64.97912
950.65        65.43305
951.04        65.69684
951.43        65.76139
951.82        65.57819
952.21        65.16047
952.60        64.58508
952.99        63.94276
953.38        63.31382
953.77        62.81794
954.16         62.6104
954.55        62.71035
954.94        63.03058
955.33        63.54267
955.72        64.17283
956.11        64.82997
956.50        65.52195
956.89         65.9399
957.28        65.60115
957.66         64.4733
958.05        62.78802
958.44        61.13206
958.83        60.35038
959.22        60.58773
959.61        61.60576
960.00        62.93044
960.39        63.64892
960.78        63.45868
961.16        62.65238
961.55        61.61528
961.94        60.82817
962.33        60.45221
962.72        60.34534
963.11        60.46763
963.49        60.79221
963.88        61.19194
964.27        61.67785
964.66        62.24504
965.04        62.91538
965.43        63.62397
965.82        64.37891
966.21        64.91013
966.60        64.75619
966.98        63.83452
967.37        62.39096
967.76        60.97006
968.15        60.24318
968.53        60.33672
968.92        61.12641
969.31        62.19096
969.69        62.67655
970.08        62.25425
970.47        61.20411
970.86        60.17716
971.24        60.10477
971.63        61.16083
972.02        63.08753
972.40        65.23909
972.79        66.07438
973.17        65.21968
973.56        63.24767
973.95        61.06863
974.33        59.85142
974.72        59.85085
975.11        60.67996
975.49        62.00357
975.88        63.09723
976.26         63.6707
976.65        63.89399
977.04        63.80338
977.42        63.41397
977.81        62.76414
978.19         61.8095
978.58         60.8718
978.96        60.46527
979.35        60.68541
979.74        61.45905
980.12        62.51627
980.51        63.09463
980.89        63.10453
981.28        62.73882
981.66        62.32804
982.05        62.33699
982.43        62.88919
982.82        63.77729
983.20        64.97846
983.59         66.3342
983.97        67.77009
984.35          69.284
984.74        70.43813
985.12        70.76311
985.51        70.12234
985.89        68.68342
986.28        67.10826
986.66        66.32252
987.04        66.60517
987.43         67.7231
987.81        69.16428
988.20        69.77734
988.58        69.23586
988.96        67.82362
989.35        66.18528
989.73        65.22645
990.12        65.13383
990.50        65.68088
990.88        66.31056
991.27        66.09312
991.65        64.83891
992.03        62.91529
992.42        61.09852
992.80        60.39053
993.18        60.99916
993.56        62.66511
993.95        64.61022
994.33        65.53606
994.71        64.92265
995.10        63.28711
995.48        61.47962
995.86        60.83044
996.24        61.64444
996.63        63.40433
997.01         65.6806
997.39        67.22478
997.77        67.47494
998.15        66.90906
998.54        65.74757
998.92        64.17696
999.30        62.50064
999.68        60.69894
1000.06           59.36
1000.45        59.30743
1000.83        60.74978
1001.21        63.59225
1001.59        67.14977
1001.97        69.59529
1002.35        70.14755
1002.73         69.2746
1003.12        67.89074
1003.50        67.14976
1003.88        67.45512
1004.26        68.31734
1004.64        69.58684
1005.02        70.91308
1005.40        71.98438
1005.78        73.05124
1006.16        73.51001
1006.54        72.36932
1006.92        69.71704
1007.30        65.99443
1007.69        62.55661
1008.07        61.15474
1008.45        62.30663
1008.83        65.64893
1009.21        70.17222
1009.59        73.26042
1009.97        73.55499
1010.35        71.68849
1010.73        68.65678
1011.11        65.95869
1011.49        64.14878
1011.86        62.88196
1012.24        62.02095
1012.62        61.33894
1013.00         60.7337
1013.38        60.28101
1013.76        60.24218
1014.14        61.02931
1014.52        62.63349
1014.90        64.74083
1015.28        66.52721
1015.66        66.99889
1016.04        66.03349
1016.41        63.89674
1016.79        61.29876
1017.17         59.6795
1017.55        59.51202
1017.93        60.39314
1018.31        61.67911
1018.69        62.42408
1019.06        62.38747
1019.44        61.83068
1019.82        61.02187
1020.20        60.56913
1020.58        60.70452
1020.95        61.04751
1021.33        61.46543
1021.71        61.74243
1022.09        61.85879
1022.46        62.05952
1022.84        62.13244
1023.22        61.67939
1023.60        60.70927
1023.97        59.24417
1024.35        58.30757
1024.73        58.93985
