SpectraSmart Spectrum 2.9.0.0
--------- Device Information -----------
Spectrum Name :  反射率_0
Saving Time :  2024/04/27 00:38:06
Spectro-Module Model Name : SE2030-DUVN
Spectro-Module Serial Number : OS361AC55029948
Wavelength Start : 200
Wavelength End : 1025
Wavelength Unit : Wavelength(nm)
Spectrum Unit : Reflectance(%)
-----------Spectrum Setting ------------
Integration Time : 20ms
Average : 10
Boxcar : 0
Background removal :  enabled
linearity correction :  enabled
SC :  disabled
Intensity correction :  disabled
DWT denoise :  enabled
savitzky-golay :  disabled
FFT :  disabled
Running average :  disabled
Kalman :  disabled
High pass :  disabled
---------------BEGIN--------------------
Wavelength(nm)             Reflectance(%)
200.29               0
200.75        30.37757
201.21        34.32366
201.67        37.40932
202.13        37.98727
202.58        35.89428
203.04        31.81268
203.50        26.00544
203.96        20.37978
204.42        16.97884
204.88        15.67627
205.34        17.30741
205.80        22.21086
206.26         28.7981
206.72        35.59733
207.18        40.36846
207.64        41.46552
208.10        38.97007
208.55        32.98045
209.01        22.48265
209.47        12.40286
209.93        8.826589
210.39        10.11139
210.85        13.05296
211.31        15.87928
211.77        19.18362
212.23        25.76514
212.69        42.17927
213.14        72.96199
213.60        76.90036
214.06        58.71177
214.52        45.05235
214.98        38.94046
215.44         36.4728
215.90        34.89923
216.36        34.11472
216.81         34.1931
217.27        35.49699
217.73        39.32168
218.19        44.36729
218.65        44.02775
219.11        37.56133
219.57        29.70304
220.02        25.39224
220.48        27.23639
220.94        35.04755
221.40        50.10127
221.86        71.58121
222.32        84.36236
222.77        76.63877
223.23        58.98001
223.69        42.88229
224.15        34.74458
224.61        32.79176
225.06        33.34194
225.52        35.00049
225.98        36.48442
226.44        37.44775
226.90        38.56484
227.36         39.0129
227.81        37.32977
228.27        33.83627
228.73        29.22229
229.19        25.34385
229.65        24.30352
230.10         26.0786
230.56        29.90816
231.02        34.10766
231.48        35.90709
231.93        34.78851
232.39        32.05849
232.85        29.24625
233.31        28.34423
233.77        29.57576
234.22        32.20138
234.68        35.24763
235.14         37.3452
235.60        38.05906
236.05        37.85622
236.51        37.11319
236.97        36.55967
237.43        36.57919
237.88        36.94355
238.34        37.63279
238.80        38.89287
239.26        40.88189
239.71        44.15004
240.17        48.44156
240.63        52.73204
241.08        56.23555
241.54        58.27119
242.00        59.89829
242.46        64.10047
242.91        73.26441
243.37        88.60458
243.83         110.542
244.28        129.0211
244.74        129.1027
245.20        111.3867
245.66        88.85254
246.11        72.45901
246.57         63.0833
247.03        57.46727
247.48        54.91208
247.94        54.68647
248.40        55.97976
248.85        58.25075
249.31        60.77754
249.77        62.83562
250.22        64.50123
250.68        65.73091
251.14        67.01012
251.59        69.19374
252.05          72.187
252.51        75.65133
252.96         76.9052
253.42        74.19013
253.88        68.54853
254.33        61.32157
254.79        56.48956
255.25        57.15103
255.70        62.65251
256.16        71.42213
256.62        79.23191
257.07        79.79842
257.53        74.66051
257.99          67.729
258.44        62.04677
258.90        60.27301
259.35        61.18059
259.81        63.58321
260.27        65.85664
260.72        66.11121
261.18        64.54224
261.63        61.83725
262.09        59.23146
262.55        57.43887
263.00        56.37983
263.46        55.84303
263.91        55.19844
264.37        54.00294
264.83        52.23401
265.28        50.14526
265.74        48.32923
266.19        47.19817
266.65        46.83531
267.11        46.94551
267.56        47.16123
268.02        46.91936
268.47        46.07793
268.93        44.85235
269.38        43.46108
269.84        42.29456
270.30        41.43619
270.75        40.73928
271.21        40.13692
271.66        39.47676
272.12        38.71496
272.57        37.89632
273.03        37.01958
273.48        36.06195
273.94        35.09665
274.39        34.10893
274.85        33.21994
275.31        32.46786
275.76         31.8347
276.22        31.33247
276.67        30.89279
277.13        30.49656
277.58        30.08193
278.04        29.67664
278.49        29.22745
278.95        28.76855
279.40        28.26552
279.86        27.78382
280.31        27.28731
280.77         26.8224
281.22        26.36627
281.68        25.96099
282.13        25.61885
282.59        25.42916
283.04        25.36821
283.50        25.43444
283.95         25.5361
284.41         25.5368
284.86        25.40807
285.32        25.20837
285.77        25.03197
286.22        25.07501
286.68        25.35575
287.13        25.76603
287.59        26.18297
288.04        26.37621
288.50        26.32046
288.95        26.07347
289.41        25.75949
289.86        25.49465
290.32        25.36061
290.77        25.32253
291.22        25.38543
291.68        25.53811
292.13        25.77976
292.59          26.158
293.04        26.69897
293.50        27.44959
293.95        28.39911
294.40        29.51694
294.86        30.76571
295.31        32.08296
295.77         33.4465
296.22        34.84988
296.68        36.28202
297.13        37.71576
297.58        39.16552
298.04        40.64439
298.49        42.18722
298.95        43.87134
299.40        45.68541
299.85        47.58952
300.31        49.53643
300.76        51.43348
301.21         53.2567
301.67        55.04657
302.12        56.75853
302.58        58.41393
303.03         59.9898
303.48        61.52399
303.94        63.10089
304.39        64.78133
304.84        66.60265
305.30        68.54732
305.75        70.51934
306.20        72.45484
306.66        74.33598
307.11        76.14211
307.57        77.87515
308.02        79.43697
308.47        80.84651
308.93        82.12205
309.38        83.33556
309.83        84.71835
310.29        86.30546
310.74        88.02575
311.19        89.67873
311.65        90.90444
312.10        91.61174
312.55        91.91977
313.00         92.0961
313.46        92.55724
313.91        93.38203
314.36        94.47578
314.82        95.63325
315.27        96.53258
315.72         97.0601
316.18        97.34125
316.63        97.49643
317.08        97.76107
317.53        98.20006
317.99        98.72023
318.44        99.24583
318.89        99.63099
319.35        99.83486
319.80        99.92693
320.25        99.96703
320.70        100.0442
321.16        100.1897
321.61        100.4096
322.06        100.6821
322.51        100.9823
322.97        101.2788
323.42        101.5778
323.87        101.9015
324.32        102.3081
324.78         102.763
325.23        103.3155
325.68        103.7833
326.13         103.894
326.59        103.6046
327.04        103.0255
327.49        102.4379
327.94        102.3158
328.39        102.7658
328.85        103.6287
329.30        104.7031
329.75        105.3705
330.20        105.4419
330.66        105.0586
331.11        104.5654
331.56        104.4492
332.01        104.8544
332.46        105.6135
332.92        106.4451
333.37          107.03
333.82        107.1964
334.27        107.1052
334.72        106.9167
335.17        106.8756
335.63        107.0656
336.08         107.453
336.53        108.0183
336.98          108.78
337.43        109.7004
337.88        110.7528
338.34        111.7893
338.79        112.6724
339.24        113.2859
339.69        113.6576
340.14        113.8074
340.59        113.8011
341.05        113.7216
341.50        113.5676
341.95        113.4603
342.40        113.5744
342.85        113.9487
343.30         114.542
343.75        115.2502
344.20        115.8846
344.66         116.375
345.11        116.7523
345.56        117.0259
346.01        117.2257
346.46        117.3862
346.91        117.5145
347.36        117.6338
347.81        117.7969
348.26        118.0042
348.72        118.2125
349.17        118.4487
349.62        118.7881
350.07        119.2133
350.52        119.7224
350.97        120.0621
351.42        119.8326
351.87        119.0064
352.32        117.7325
352.77        116.4767
353.22        115.9211
353.67        116.1828
354.13        117.0529
354.58        118.0686
355.03        118.4093
355.48        117.8599
355.93        116.6694
356.38        115.3026
356.83        114.4589
357.28        114.2856
357.73        114.5366
358.18        114.8356
358.63        114.5893
359.08        113.6577
359.53        112.2758
359.98        110.7564
360.43        109.5346
360.88        108.7187
361.33        108.1618
361.78        107.6935
362.23        107.0584
362.68        106.1951
363.13        105.2143
363.58        104.2202
364.03        103.3526
364.48        102.6374
364.93        101.9943
365.38        101.3769
365.83        100.7313
366.28        100.0372
366.73        99.33262
367.18        98.58443
367.63        97.72813
368.08         96.7729
368.53        95.74721
368.98        94.76588
369.43        94.01023
369.88        93.51427
370.33        93.22166
370.78        93.00796
371.23         92.6667
371.68         92.1304
372.13        91.44261
372.58        90.68526
373.03        89.99405
373.48        89.40109
373.93        88.85673
374.38        88.28715
374.83        87.58839
375.28        86.74616
375.72        85.79436
376.17        84.87167
376.62        84.06911
377.07        83.42611
377.52        82.94041
377.97        82.53985
378.42        82.12011
378.87        81.65716
379.32        81.14655
379.77        80.72975
380.22        80.61413
380.67        80.79905
381.11        81.23975
381.56        81.56758
382.01        81.26056
382.46        80.25494
382.91        78.78538
383.36        77.32359
383.81        76.51601
384.26         76.4642
384.71        76.95008
385.15        77.64317
385.60        77.96849
386.05        77.75076
386.50        77.16457
386.95         76.3857
387.40        75.68938
387.85        75.17511
388.29        74.70874
388.74         74.3412
389.19        73.95934
389.64        73.53976
390.09        73.12035
390.54        72.73289
390.98        72.40148
391.43        72.16716
391.88         71.9924
392.33        71.84011
392.78        71.63007
393.23        71.34508
393.67        71.06598
394.12        70.85653
394.57        70.47167
395.02        70.00596
395.47        69.88904
395.91        70.06361
396.36        69.99225
396.81        69.67268
397.26        69.42521
397.71        69.23259
398.15        68.98981
398.60        68.79478
399.05        68.39158
399.50        67.94245
399.95        68.20332
400.39        68.97021
400.84         68.9112
401.29         68.0506
401.74        67.64165
402.18        67.69233
402.63        67.22501
403.08        66.39886
403.53        66.02357
403.97        66.14816
404.42        66.46001
404.87        66.78314
405.32        66.87199
405.76        66.63744
406.21        66.29362
406.66        65.94198
407.11        65.50101
407.55        65.15252
408.00        65.37149
408.45        66.00767
408.90         66.2264
409.34        65.91348
409.79        65.52288
410.24        65.19012
410.68        64.93043
411.13         64.7988
411.58        64.76883
412.03        64.78748
412.47        64.77921
412.92        64.69701
413.37        64.59059
413.81        64.47024
414.26        64.41249
414.71         64.4069
415.15        64.45152
415.60        64.50385
416.05        64.57343
416.49        64.65762
416.94        64.74096
417.39        64.82173
417.83        64.88369
418.28        64.92731
418.73         64.9558
419.17        64.97184
419.62        64.98362
420.07        64.98792
420.51        64.96277
420.96        64.94617
421.41        64.92521
421.85        64.87518
422.30        64.91932
422.74        64.95899
423.19        64.81477
423.64        64.51921
424.08        64.41023
424.53        64.49914
424.98         64.5651
425.42        64.60558
425.87        64.80315
426.31        65.07568
426.76        65.01878
427.21          64.701
427.65        64.57322
428.10        64.63535
428.54        64.68929
428.99        64.77871
429.44        64.67867
429.88        64.54736
430.33        65.23392
430.77        66.32037
431.22        66.57102
431.66        65.96899
432.11        65.27885
432.56        64.84145
433.00        64.87138
433.45        65.43915
433.89        66.36111
434.34        66.94244
434.78        67.40984
435.23        66.19267
435.67        64.64351
436.12        65.18366
436.57        65.43079
437.01        65.91946
437.46        66.09145
437.90         65.9452
438.35        65.25034
438.79        65.30231
439.24        65.24599
439.68        65.40565
440.13        65.89233
440.57        66.60889
441.02        66.74993
441.46        66.39288
441.91         67.0491
442.35         68.2527
442.80        67.92204
443.24        66.42828
443.69        66.42874
444.13        67.77837
444.58        68.28411
445.02           67.87
445.47        67.75317
445.91        68.01864
446.36        68.25093
446.80        68.43291
447.24        68.72034
447.69          69.055
448.13         69.0698
448.58        69.10236
449.02        69.04782
449.47         69.0297
449.91        68.94102
450.36        68.82287
450.80        68.72585
451.25        68.68276
451.69        68.66061
452.13        68.66921
452.58        68.70261
453.02        68.74825
453.47          68.789
453.91         68.8036
454.36        68.81415
454.80        68.79815
455.24        68.56866
455.69        68.11597
456.13        67.76295
456.58        67.71194
457.02        66.75385
457.46        66.99824
457.91        67.23817
458.35        67.76027
458.79        67.74712
459.24        67.21943
459.68        66.41017
460.13         65.5816
460.57        65.27874
461.01        65.67947
461.46        65.42542
461.90        65.98302
462.34        66.93994
462.79        66.68494
463.23        66.84663
463.68        66.76487
464.12        66.56529
464.56        66.18269
465.01        65.36758
465.45        64.39861
465.89        64.17157
466.34        64.54821
466.78        64.85933
467.22        65.01995
467.67        64.35169
468.11        64.28221
468.55        64.22723
468.99        64.50874
469.44        64.46787
469.88        64.10439
470.32        63.82343
470.77        63.68616
471.21        63.61434
471.65        63.60809
472.10        63.69343
472.54        63.81598
472.98        63.86244
473.42        63.79819
473.87        63.76796
474.31        63.70773
474.75        63.35064
475.20        62.83778
475.64        62.68759
476.08         62.9087
476.52        62.89528
476.97        62.59707
477.41        62.62613
477.85        63.06624
478.29        62.33838
478.74        62.82715
479.18        62.84521
479.62        63.03271
480.06        63.03589
480.50        62.84276
480.95        62.67931
481.39        62.57063
481.83         62.2687
482.27        62.20963
482.72        62.38768
483.16        62.32843
483.60        62.37494
484.04        62.29614
484.48        62.50265
484.93        62.95197
485.37        62.06797
485.81        62.05819
486.25         61.8038
486.69        63.09486
487.14        63.45374
487.58        61.68735
488.02        62.87986
488.46        61.50072
488.90        61.33626
489.34        62.41608
489.79        62.99155
490.23        62.80037
490.67        62.15876
491.11        61.29849
491.55        61.19374
491.99        61.74581
492.43        61.79811
492.88        61.31631
493.32        61.09884
493.76        61.19569
494.20        61.26046
494.64        61.28178
495.08        61.37503
495.52        61.48839
495.96        61.51407
496.41        61.45162
496.85        61.36723
497.29        61.22103
497.73        61.32012
498.17        60.90372
498.61        60.93372
499.05        61.12033
499.49        61.19799
499.93        60.97094
500.37        61.01792
500.82        61.24182
501.26        61.33724
501.70        61.27206
502.14         61.1638
502.58        61.08876
503.02        61.13097
503.46        61.30639
503.90        61.57763
504.34        61.82825
504.78        61.87766
505.22        61.68185
505.66        61.30955
506.10        60.91767
506.54        60.69975
506.98        60.66143
507.42        61.03588
507.86        61.03442
508.30         61.1207
508.74        61.16709
509.18        61.07532
509.62        60.91668
510.06        60.78745
510.50         60.7227
510.94        60.68062
511.38        60.66583
511.82        60.69373
512.26        60.75869
512.70        60.85919
513.14        60.96944
513.58        61.04156
514.02        61.06298
514.46        61.04467
514.90        61.00077
515.34        60.95896
515.78        60.92884
516.22        60.89989
516.66        60.87804
517.10        60.87202
517.54        60.88188
517.98        60.91167
518.42        60.93812
518.86        60.92162
519.30        60.85759
519.74        60.75665
520.18        60.66178
520.62        60.63998
521.06        60.70496
521.50        60.83947
521.93        60.99372
522.37        61.06652
522.81        61.04187
523.25        60.94299
523.69        60.83012
524.13         60.7987
524.57        60.86432
525.01        60.98993
525.45        61.10984
525.89        61.11942
526.32        60.99075
526.76         60.7824
527.20        60.54545
527.64        60.36338
528.08         60.2632
528.52        60.21679
528.96        60.21812
529.40        60.25696
529.83        60.31947
530.27        60.41867
530.71        60.51275
531.15        60.53994
531.59        60.49082
532.03        60.37484
532.46        60.24128
532.90        60.21375
533.34        60.30169
533.78        60.43549
534.22        60.54829
534.66        60.61173
535.09        60.56259
535.53        60.29723
535.97        59.90931
536.41        59.70138
536.85        59.71541
537.28        59.81025
537.72         59.9434
538.16        60.09146
538.60        60.22158
539.04        60.33867
539.47        60.40998
539.91        60.42396
540.35        60.36835
540.79        60.24911
541.22        60.09869
541.66        59.99408
542.10        59.94705
542.54        59.94218
542.97         59.9465
543.41        59.93044
543.85         59.8799
544.29        59.82322
544.72        59.76015
545.16        59.72385
545.60         59.7091
546.04         59.7076
546.47        59.74703
546.91        59.85787
547.35        60.03414
547.79        60.28143
548.22        60.50787
548.66        60.54118
549.10        60.42781
549.53        60.19711
549.97        59.94824
550.41        59.70162
550.84         59.5512
551.28        59.66054
551.72        59.92411
552.15        60.07636
552.59        60.11771
553.03        59.79993
553.46        59.94292
553.90        59.87442
554.34         59.8312
554.77        59.81869
555.21        59.82758
555.65        59.90185
556.08         60.0036
556.52        60.13641
556.96        60.23486
557.39        60.24056
557.83        60.11013
558.27        59.89817
558.70        59.31323
559.14         59.1631
559.57        59.32081
560.01        59.51447
560.45        59.65884
560.88        59.78706
561.32        59.88764
561.75        59.89754
562.19        59.85597
562.63        59.73936
563.06        59.60764
563.50        59.66763
563.93        59.82095
564.37        59.87658
564.80        59.83884
565.24        59.70572
565.68        59.40241
566.11        59.99139
566.55        59.32075
566.98        59.26854
567.42        59.31355
567.85        59.17469
568.29        59.51288
568.72         59.8167
569.16        60.26681
569.60        60.45288
570.03        60.56094
570.47        60.65877
570.90        60.83052
571.34        60.34978
571.77         60.5565
572.21        60.71111
572.64        60.43957
573.08        60.81762
573.51        60.06018
573.95        60.20749
574.38        60.45173
574.82        60.37838
575.25        60.07969
575.69        60.32628
576.12        60.42632
576.56        59.91322
576.99        60.18884
577.42        59.83397
577.86        59.96658
578.29        60.93526
578.73        60.72387
579.16        60.57384
579.60        59.91268
580.03         59.9569
580.47        59.89073
580.90        60.78191
581.33        60.95586
581.77        60.96902
582.20        60.68557
582.64        61.02266
583.07         60.5863
583.51        60.23241
583.94        59.82608
584.37        59.89664
584.81        60.41032
585.24        60.66389
585.68        60.59295
586.11         60.1334
586.54        60.10561
586.98        59.60738
587.41        59.30886
587.85         60.2549
588.28        59.78659
588.71        59.91537
589.15        59.65541
589.58        60.02142
590.01        59.52705
590.45        59.54289
590.88        60.37975
591.31        60.30056
591.75        59.68063
592.18          59.356
592.61        59.47368
593.05         59.8542
593.48        60.80773
593.91        60.07904
594.35        60.12323
594.78         59.6077
595.21        59.32756
595.65        59.68405
596.08        60.66868
596.51         60.3512
596.94        59.68067
597.38        59.31079
597.81        59.57606
598.24        59.97678
598.68        59.97857
599.11        59.56708
599.54        60.62765
599.97        59.87346
600.41         59.9927
600.84        59.45106
601.27        59.76771
601.70        59.46202
602.14        59.58152
602.57        59.39063
603.00        59.51785
603.43         59.0626
603.87         59.7957
604.30        60.21864
604.73          59.633
605.16        59.44762
605.60        59.35967
606.03        59.12077
606.46        58.73743
606.89        58.91395
607.32        59.48525
607.76        59.05723
608.19         59.4724
608.62        59.35415
609.05        59.33074
609.48        59.23396
609.92        59.90328
610.35        59.37218
610.78        58.98766
611.21        59.09993
611.64        59.07867
612.07        59.38726
612.50         59.3835
612.94        59.42799
613.37        59.35867
613.80        59.36616
614.23        58.70875
614.66        58.70866
615.09        59.08546
615.52        59.23544
615.96        59.07543
616.39          59.212
616.82         59.2385
617.25         59.0467
617.68        58.87713
618.11        58.91274
618.54        59.18036
618.97        59.28133
619.40        58.96159
619.84         59.0042
620.27         58.7914
620.70        58.78992
621.13        58.83212
621.56        58.30434
621.99         57.8354
622.42        57.96284
622.85         58.4515
623.28        58.37526
623.71        58.21372
624.14        58.52447
624.57        58.55756
625.00        58.39523
625.43         58.5501
625.86         58.4927
626.29        58.48085
626.72        58.31945
627.15         58.4782
627.58        58.52628
628.01        58.52186
628.44        58.58882
628.87        58.17803
629.30        58.00166
629.73        57.99733
630.16         57.9793
630.59         57.9739
631.02        58.08895
631.45        58.29238
631.88        58.44485
632.31        58.51501
632.74        58.53629
633.17        58.50784
633.60        58.43366
634.03        58.32618
634.46        58.17831
634.89        58.01936
635.32        57.91568
635.75        57.88479
636.18        57.84997
636.61        57.81744
637.04         57.8295
637.47         57.8807
637.89        57.95396
638.32        57.99929
638.75        57.99211
639.18        57.92653
639.61        57.81078
640.04        57.69398
640.47        57.65606
640.90        57.71367
641.33        57.84571
641.76        58.00013
642.18        58.09536
642.61        58.08931
643.04        58.01293
643.47        57.91243
643.90        57.86317
644.33        57.88302
644.76        57.94753
645.18        58.01526
645.61        58.00467
646.04        57.90608
646.47        57.75213
646.90        57.59203
647.33        57.49029
647.75        57.44162
648.18        57.48539
648.61        57.61779
649.04        57.59535
649.47        57.36131
649.89        57.88317
650.32        57.60515
650.75        57.59838
651.18          57.473
651.61        57.49093
652.03        57.67775
652.46        57.90789
652.89        58.08847
653.32        58.10268
653.74        58.05256
654.17        57.52765
654.60        57.70508
655.03        57.63565
655.46        56.89916
655.88        57.25088
656.31        60.39059
656.74        62.26614
657.16        60.84513
657.59        59.94329
658.02         58.2602
658.45        58.72014
658.87        57.81828
659.30        57.83321
659.73        57.80021
660.15        58.49791
660.58        57.79496
661.01         57.5667
661.44         57.3301
661.86        57.12331
662.29        56.91846
662.72        57.36389
663.14        57.29037
663.57        57.22184
664.00        56.94191
664.42        56.95583
664.85        57.28286
665.27        57.63049
665.70        57.86174
666.13        57.95332
666.55        57.88115
666.98        57.58997
667.41         57.1723
667.83        57.15862
668.26        56.99854
668.69        57.12244
669.11        57.31099
669.54         57.4857
669.96        57.61226
670.39        57.73379
670.82        57.84082
671.24        57.82985
671.67         57.7264
672.09        57.66146
672.52        57.65281
672.94        57.58192
673.37        57.46055
673.80        57.35959
674.22        57.30714
674.65        57.27849
675.07        57.28934
675.50        57.33284
675.92         57.3848
676.35        57.39372
676.77        57.35033
677.20        57.26519
677.62        57.16829
678.05        57.11042
678.47        57.10269
678.90        57.13317
679.32        57.17803
679.75        57.21135
680.17        57.22152
680.60        57.22067
681.02        57.21991
681.45        57.24077
681.87          57.299
682.30        57.34605
682.72         57.3875
683.15        57.47268
683.57        57.57433
684.00        57.51829
684.42        57.36085
684.85        57.34853
685.27        57.49448
685.70        57.66805
686.12        57.79675
686.54        57.87243
686.97        57.88132
687.39        57.66814
687.82        57.58171
688.24        57.45732
688.66        57.40929
689.09        57.40639
689.51        57.44384
689.94        57.47788
690.36         57.4989
690.78        57.51099
691.21        57.52577
691.63        57.55154
692.06        57.59341
692.48        57.65582
692.90        57.70341
693.33        57.68737
693.75        57.59957
694.17        57.42715
694.60        57.26048
695.02         57.2528
695.44        57.40334
695.87        57.67757
696.29         57.9525
696.71        57.84643
697.14        57.43641
697.56         57.2308
697.98        57.29287
698.41        57.36061
698.83        57.34172
699.25        57.56147
699.68        57.86784
700.10        57.97427
700.52        57.81561
700.94         57.4911
701.37        57.14418
701.79        57.00757
702.21        57.13203
702.64         57.4329
703.06        57.78992
703.48        57.99373
703.90        57.98411
704.33        57.82448
704.75        57.60649
705.17        57.46902
705.59        57.45948
706.01        57.53175
706.44        57.63602
706.86        57.72419
707.28        57.76856
707.70         57.7568
708.12        57.72911
708.55        57.81606
708.97        57.98254
709.39        57.99635
709.81        57.86837
710.23        57.83074
710.66        57.89402
711.08        57.93813
711.50        57.92608
711.92         57.8772
712.34        57.79189
712.76        57.67692
713.19        57.55462
713.61        57.49604
714.03        57.50776
714.45        57.57858
714.87         57.7025
715.29        57.87022
715.71        58.06296
716.13        58.26155
716.56        58.42304
716.98        58.55575
717.40         58.6175
717.82        58.61761
718.24        58.53014
718.66        58.31661
719.08        58.00332
719.50        57.63524
719.92        57.31691
720.34        57.20215
720.76        57.31747
721.19        57.59061
721.61        57.97007
722.03        58.32019
722.45        58.57452
722.87        58.75444
723.29        58.81333
723.71        58.68615
724.13        58.38781
724.55        57.95102
724.97         57.5004
725.39        57.24616
725.81        57.24388
726.23        57.42395
726.65        57.69591
727.07        58.03267
727.49        58.16914
727.91        58.30046
728.33        58.38733
728.75        58.47734
729.17        58.57708
729.59        58.66087
730.01        58.69466
730.43        58.63249
730.85        58.47392
731.27        58.24572
731.69        58.01566
732.10        57.87955
732.52         57.8609
732.94        57.95124
733.36        58.10723
733.78        58.13827
734.20        58.00092
734.62        57.94919
735.04        58.11453
735.46        57.62393
735.88        58.20933
736.30        58.44503
736.72        58.75399
737.13        58.94798
737.55        58.94712
737.97        58.89467
738.39         58.7959
738.81         58.4981
739.23        58.12725
739.65        58.16909
740.06         58.5421
740.48        58.75794
740.90        58.76112
741.32        58.83921
741.74         58.9908
742.16        59.06541
742.57        59.05831
742.99        58.99673
743.41        58.90104
743.83        58.79095
744.25        58.68113
744.67        58.56039
745.08        58.48264
745.50        58.50887
745.92        58.65136
746.34        58.88804
746.75        59.12522
747.17        59.19875
747.59        59.07983
748.01        58.81303
748.42        58.50885
748.84        58.34757
749.26        58.37235
749.68         58.5284
750.09        58.72038
750.51        58.79057
750.93        58.70321
751.35        58.53793
751.76         58.3416
752.18        58.17755
752.60        58.06844
753.01        58.01236
753.43        57.98888
753.85        57.98873
754.27        58.01015
754.68        58.06897
755.10        58.15844
755.52        58.25836
755.93        58.34998
756.35        58.42761
756.77        58.54029
757.18         58.6121
757.60        58.62154
758.02        58.89323
758.43        59.38552
758.85        58.66491
759.26        58.80128
759.68        58.58028
760.10        58.60745
760.51        58.86482
760.93        59.00919
761.34        58.87386
761.76        58.98015
762.18        58.93475
762.59        58.97105
763.01        59.03786
763.42        59.18037
763.84        59.25718
764.26        59.26101
764.67        59.28968
765.09        59.33359
765.50        59.13931
765.92         58.8091
766.33         58.6398
766.75        58.58982
767.16        58.52225
767.58        58.40759
768.00        58.27142
768.41        58.19767
768.83        58.48809
769.24        58.98552
769.66        59.07172
770.07        58.77426
770.49        58.52882
770.90        58.47855
771.32        58.81148
771.73        59.38235
772.15        59.56304
772.56        59.30996
772.97         58.9655
773.39        58.67981
773.80        58.55298
774.22        58.61724
774.63        58.88567
775.05        59.20158
775.46        59.36852
775.88        59.30454
776.29        59.09587
776.70        58.84477
777.12         58.7365
777.53        58.82616
777.95        59.01426
778.36        59.24014
778.77        59.37343
779.19        59.39095
779.60        59.35839
780.02        59.26793
780.43        59.18019
780.84        59.13541
781.26        58.85251
781.67          58.496
782.09        58.90977
782.50        59.84399
782.91        59.89839
783.33        59.12796
783.74        58.85167
784.15        59.12356
784.57         59.1642
784.98        59.00126
785.39        59.03702
785.81        59.28096
786.22        59.61904
786.63        59.95811
787.04        60.15052
787.46        60.16946
787.87        60.04593
788.28        59.86957
788.70        59.75024
789.11        59.69954
789.52        59.73669
789.93        59.81026
790.35        59.75871
790.76        59.60706
791.17         59.5392
791.58        59.57686
792.00        59.57309
792.41        59.53659
792.82        59.61045
793.23        59.76815
793.65        59.73415
794.06        59.59254
794.47         59.8087
794.88        60.25204
795.29         60.3574
795.71        60.06812
796.12         59.7005
796.53        59.39798
796.94        59.30446
797.35        59.48725
797.76        59.90591
798.18        60.39135
798.59         60.7052
799.00        60.75169
799.41        60.59452
799.82        60.34007
800.23        60.17279
800.64        60.14516
801.06         60.1713
801.47        60.22585
801.88        60.18936
802.29        60.03251
802.70        59.80804
803.11        59.56889
803.52        59.38741
803.93        59.30499
804.34        59.30847
804.75        59.38629
805.17        59.55947
805.58        59.84935
805.99         60.0592
806.40        60.19676
806.81        60.66896
807.22         61.2704
807.63        61.09805
808.04        60.28757
808.45        59.85255
808.86        59.89343
809.27        59.89034
809.68        59.77325
810.09        59.67778
810.50        59.59141
810.91         59.4772
811.32        59.43438
811.73        59.59966
812.14        59.97916
812.55        60.57551
812.96         61.1787
813.37        61.27377
813.78        60.82782
814.19        60.26451
814.60        59.76363
815.01        59.33474
815.42        59.03864
815.83        58.95242
816.24        59.03733
816.65        59.13101
817.05        59.19383
817.46        59.26712
817.87        59.34889
818.28        59.38326
818.69        59.36799
819.10        59.28784
819.51        59.22707
819.92        59.35425
820.33        59.68809
820.74        60.15774
821.14        60.61633
821.55        60.82669
821.96        60.73573
822.37        60.42501
822.78        59.99857
823.19        59.63669
823.60        59.41655
824.00        59.31308
824.41        59.29697
824.82        59.40194
825.23         59.6044
825.64        59.90048
826.04        60.21046
826.45        60.36339
826.86        60.33134
827.27        60.15401
827.68        59.89533
828.08         59.7035
828.49        59.58271
828.90        59.50788
829.31        59.49448
829.72        59.56396
830.12         59.7277
830.53        59.94681
830.94         60.1283
831.35        60.06512
831.75        59.73959
832.16        59.19823
832.57         58.6472
832.97        58.39795
833.38        58.51994
833.79        58.89763
834.20        59.38918
834.60        59.76519
835.01        59.95599
835.42        60.06772
835.82        60.11536
836.23        60.05965
836.64        59.94491
837.04        59.73759
837.45        59.60713
837.86        59.89294
838.26        60.65249
838.67        61.75096
839.08        62.80797
839.48        63.09989
839.89        62.45732
840.29        61.15272
840.70        59.75163
841.11        58.90607
841.51        58.78626
841.92        59.17824
842.33        59.88438
842.73        60.54508
843.14        60.91307
843.54        61.14172
843.95        61.25119
844.35        61.32148
844.76        61.36511
845.17        61.32177
845.57        61.20718
845.98        61.04862
846.38        60.88087
846.79        60.71747
847.19        60.56227
847.60        60.38733
848.00        60.20277
848.41        59.99666
848.81        59.83287
849.22        59.74218
849.62        59.76448
850.03        59.87711
850.43        60.01704
850.84         60.0227
851.24        59.90065
851.65        59.64143
852.05        59.43449
852.46        59.51978
852.86        59.93427
853.27        60.56237
853.67        61.14431
854.07        61.42717
854.48        61.34005
854.88        60.99111
855.29        60.45968
855.69         60.0075
856.10        59.68459
856.50        59.49822
856.90        59.40613
857.31        59.34974
857.71        59.35036
858.12        59.37764
858.52        59.46781
858.92        59.56832
859.33        59.64133
859.73        59.71907
860.13        59.72565
860.54        59.56999
860.94        59.28529
861.34        58.89501
861.75        58.51509
862.15        58.37097
862.55        58.49758
862.96        58.80673
863.36        59.22575
863.76        59.54914
864.17        59.68941
864.57         59.7252
864.97        59.63756
865.38        59.41251
865.78        59.09979
866.18        58.69611
866.58        58.31876
866.99        58.18317
867.39        58.35252
867.79        58.75142
868.19        59.24755
868.60        59.60736
869.00        59.78936
869.40        59.83804
869.80        59.77391
870.21        59.64846
870.61        59.55473
871.01        59.43561
871.41        59.30653
871.81        59.19433
872.22        59.09319
872.62        58.99303
873.02        58.91078
873.42        58.85551
873.82        58.82095
874.22        58.80709
874.63        58.74339
875.03        58.53959
875.43        58.18464
875.83        57.72849
876.23        57.30162
876.63        57.10453
877.03        57.18475
877.44        57.45364
877.84        57.82222
878.24        58.16663
878.64        58.36741
879.04        58.28089
879.44        58.04055
879.84        57.99123
880.24        58.16116
880.64        58.40335
881.04        58.51977
881.44        58.23331
881.84        57.51394
882.24        56.49923
882.65        55.49551
883.05        54.95678
883.45        55.00103
883.85        55.50854
884.25        56.25384
884.65        56.83947
885.05        57.12038
885.45        57.18642
885.85        57.16445
886.25        57.25801
886.65        57.52221
887.05        57.88472
887.45        58.22481
887.85         58.3622
888.25        58.25653
888.65        57.97051
889.04        57.67106
889.44        57.63541
889.84         57.8984
890.24        58.37006
890.64        58.83657
891.04        58.94925
891.44        58.63942
891.84        58.04889
892.24        57.38962
892.64        56.96793
893.04        56.87448
893.44        57.02909
893.83        57.35688
894.23        57.68274
894.63        57.95448
895.03        58.19578
895.43         58.4346
895.83        58.71735
896.23        59.02881
896.63        59.31042
897.02        59.45159
897.42        59.32607
897.82        58.92285
898.22        58.32911
898.62        57.67479
899.01        57.13472
899.41        56.78526
899.81        56.58717
900.21        56.52407
900.61        56.56124
901.00        56.66572
901.40        56.82778
901.80        57.01234
902.20        57.15536
902.59        57.24719
902.99        57.30331
903.39        57.29979
903.79        57.20598
904.18        57.02884
904.58        56.77785
904.98        56.60553
905.38        56.75419
905.77         57.2472
906.17        58.02079
906.57        58.79044
906.96        59.07891
907.36        58.76639
907.76        58.01138
908.15        57.17585
908.55        56.81778
908.95        57.08476
909.34        57.81927
909.74        58.68396
910.14        59.19508
910.53        59.18146
910.93        58.81949
911.33        58.28466
911.72        57.83162
912.12        57.60313
912.52        57.51249
912.91        57.50319
913.31        57.51285
913.70        57.52404
914.10        57.54376
914.49        57.66393
914.89        57.95453
915.29        58.41793
915.68         58.9931
916.08        59.46295
916.47        59.54035
916.87        59.18172
917.26        58.48203
917.66        57.69679
918.05        57.07966
918.45        56.72619
918.84        56.63009
919.24        56.68886
919.64        56.84221
920.03        57.05794
920.42        57.29213
920.82         57.6368
921.21        58.18934
921.61        58.91679
922.00         59.7909
922.40        60.48766
922.79        60.59142
923.19        60.00695
923.58        58.92849
923.98        57.77011
924.37        57.07776
924.77        56.99164
925.16        57.32972
925.55        57.88732
925.95        58.27309
926.34        58.35523
926.74        58.23553
927.13        57.95522
927.52        57.51347
927.92        57.00343
928.31        56.41679
928.70        55.89454
929.10        55.64175
929.49        55.68169
929.89        55.91325
930.28        56.34691
930.67        56.87903
931.07        57.41056
931.46        58.02168
931.85        58.44751
932.24        58.31605
932.64        57.63658
933.03        56.50293
933.42        55.42627
933.82        55.15406
934.21        55.82559
934.60        57.27712
934.99        58.97007
935.39        59.91365
935.78        59.84609
936.17        58.95901
936.56        57.79029
936.96        57.19971
937.35        57.39544
937.74        58.09964
938.13        58.83297
938.53        58.86683
938.92        58.05999
939.31        56.73453
939.70          55.328
940.09        54.42903
940.49        54.16763
940.88        54.38968
941.27        54.91019
941.66        55.38958
942.05        55.69278
942.44        55.93427
942.84        56.17378
943.23        56.48649
943.62        56.89048
944.01        57.27748
944.40        57.63261
944.79        57.98143
945.18        58.28749
945.57          58.529
945.97        58.54543
946.36        58.16883
946.75        57.37195
947.14        56.30876
947.53        55.20237
947.92         54.3381
948.31        53.80821
948.70        53.56282
949.09        53.58871
949.48        53.84521
949.87        54.28186
950.26        54.88054
950.65        55.55223
951.04        56.15135
951.43        56.60752
951.82        56.91071
952.21        57.03688
952.60        56.98849
952.99        56.79872
953.38        56.48769
953.77        56.15749
954.16        55.96818
954.55        55.94752
954.94        56.04514
955.33        56.19126
955.72        56.24142
956.11        56.14708
956.50        55.97927
956.89        55.69736
957.28        55.24358
957.66        54.64488
958.05        53.95398
958.44         53.3952
958.83        53.29568
959.22        53.68915
959.61        54.49369
960.00        55.39273
960.39        55.78866
960.78        55.51249
961.16        54.73916
961.55        53.87172
961.94        53.44398
962.33        53.60085
962.72        54.23149
963.11        55.08633
963.49        55.70107
963.88        55.82583
964.27         55.5611
964.66        55.25309
965.04        55.44865
965.43        56.20264
965.82        57.42183
966.21         58.5209
966.60        58.41412
966.98        56.88407
967.37        54.44624
967.76        52.08217
968.15        51.00906
968.53        51.42223
968.92         53.0028
969.31        55.05674
969.69        56.16944
970.08        55.78978
970.47        54.39394
970.86        52.79521
971.24        52.13356
971.63        52.66891
972.02        54.06471
972.40        55.80357
972.79        56.65935
973.17        56.28566
973.56        55.11767
973.95        53.77971
974.33        53.05968
974.72          53.129
975.11        53.68993
975.49        54.47078
975.88        54.93149
976.26        54.90869
976.65        54.58421
977.04        54.07397
977.42        53.49734
977.81        52.91209
978.19        52.26053
978.58        51.82961
978.96        52.04472
979.35        52.93957
979.74        54.40736
980.12        56.03735
980.51        56.86033
980.89        56.71259
981.28        55.82307
981.66        54.68718
982.05         53.9931
982.43        53.93795
982.82        54.32574
983.20        55.03706
983.59         55.7681
983.97        56.42986
984.35        57.08994
984.74        57.62735
985.12        58.05285
985.51        58.28897
985.89        58.31475
986.28         58.2205
986.66         58.1063
987.04        58.05458
987.43         57.9957
987.81        57.92813
988.20        57.76382
988.58        57.50937
988.96        57.16517
989.35        56.71946
989.73        56.13185
990.12        55.39711
990.50         54.5825
990.88        53.72108
991.27        52.92697
991.65        52.28527
992.03        51.78571
992.42        51.55524
992.80        51.73637
993.18        52.35014
993.56         53.3976
993.95         54.5214
994.33        55.19682
994.71        55.15916
995.10        54.58431
995.48        53.93354
995.86         54.0253
996.24        55.02139
996.63        56.58192
997.01         58.3228
997.39        59.14566
997.77        58.63738
998.15        57.25698
998.54        55.38628
998.92        53.44931
999.30        51.75991
999.68        50.26093
1000.06        49.31519
1000.45        49.39421
1000.83        50.61261
1001.21        52.91911
1001.59        55.82316
1001.97        57.96367
1002.35        58.73413
1002.73        58.46071
1003.12        57.73173
1003.50        57.28763
1003.88        57.43505
1004.26        57.76859
1004.64         58.4069
1005.02        59.54181
1005.40        61.03505
1005.78        62.96804
1006.16        64.30717
1006.54        63.40401
1006.92        60.23312
1007.30        55.47105
1007.69        50.90816
1008.07        48.92441
1008.45        50.17896
1008.83        54.15968
1009.21        59.56494
1009.59        63.07849
1009.97        63.07772
1010.35        60.50209
1010.73        56.69093
1011.11        53.60488
1011.49        51.89925
1011.86        51.00217
1012.24        50.71836
1012.62        50.87466
1013.00        51.33439
1013.38        52.20842
1013.76        53.47573
1014.14        54.77538
1014.52         55.8115
1014.90        56.56485
1015.28        56.69286
1015.66        55.86093
1016.04        54.13379
1016.41        51.56251
1016.79        49.05641
1017.17        48.33559
1017.55        49.73615
1017.93        52.66349
1018.31         55.7627
1018.69        57.08878
1019.06        56.21035
1019.44        53.56717
1019.82         49.9655
1020.20        47.53791
1020.58        47.28447
1020.95        48.42943
1021.33        50.24619
1021.71        51.84247
1022.09        53.04756
1022.46        54.36418
1022.84        55.53416
1023.22        55.77408
1023.60        54.88768
1023.97        52.87971
1024.35        51.08438
1024.73        50.98872
