SpectraSmart Spectrum 2.9.0.0
--------- Device Information -----------
Spectrum Name :  反射率_0
Saving Time :  2024/04/27 00:37:08
Spectro-Module Model Name : SE2030-DUVN
Spectro-Module Serial Number : OS361AC55029948
Wavelength Start : 200
Wavelength End : 1025
Wavelength Unit : Wavelength(nm)
Spectrum Unit : Reflectance(%)
-----------Spectrum Setting ------------
Integration Time : 20ms
Average : 10
Boxcar : 0
Background removal :  enabled
linearity correction :  enabled
SC :  disabled
Intensity correction :  disabled
DWT denoise :  enabled
savitzky-golay :  disabled
FFT :  disabled
Running average :  disabled
Kalman :  disabled
High pass :  disabled
---------------BEGIN--------------------
Wavelength(nm)             Reflectance(%)
200.29               0
200.75        40.18283
201.21        40.71429
201.67        41.38859
202.13        41.58948
202.58         41.1293
203.04        40.60313
203.50        40.04679
203.96        39.36714
204.42        38.68139
204.88        37.79461
205.34        37.18911
205.80        37.78516
206.26        39.36673
206.72        41.26822
207.18        42.46706
207.64        42.00006
208.10        39.69851
208.55        35.47744
209.01        28.97181
209.47        24.06822
209.93        24.08593
210.39        27.14866
210.85        30.45845
211.31        32.86532
211.77        35.02365
212.23        38.32486
212.69        47.32162
213.14        72.37411
213.60        87.91841
214.06        83.01286
214.52        74.36887
214.98        67.40507
215.44        60.80553
215.90         52.7479
216.36        44.73343
216.81        39.42586
217.27        37.87805
217.73        40.42987
218.19        45.23736
218.65        44.27157
219.11        36.64175
219.57        28.49115
220.02        24.47455
220.48        26.87939
220.94        35.61425
221.40         51.8068
221.86        75.39435
222.32        92.23531
222.77        88.78468
223.23        74.04415
223.69        58.23641
224.15        47.31961
224.61        40.83316
225.06         36.3598
225.52        33.83553
225.98        33.21529
226.44        34.06733
226.90        36.35657
227.36        38.86584
227.81        39.42374
228.27        37.83525
228.73        34.80342
229.19        32.00501
229.65        31.39854
230.10        33.04144
230.56        36.25898
231.02        39.50874
231.48        40.34904
231.93        38.43963
232.39        35.06677
232.85        31.86945
233.31        30.94491
233.77        32.47845
234.22        35.71632
234.68        39.41785
235.14         41.7574
235.60        42.18047
236.05        41.20276
236.51        39.52841
236.97        38.63171
237.43        39.16542
237.88        40.74184
238.34          42.804
238.80        44.71175
239.26        46.29158
239.71        48.10006
240.17        50.21794
240.63         52.9795
241.08        56.58254
241.54        60.48792
242.00        64.81485
242.46        70.41572
242.91        78.66685
243.37         90.1956
243.83        106.3304
244.28        123.4553
244.74        131.8127
245.20        128.1691
245.66        116.9972
246.11        103.5845
246.57         89.7347
247.03        74.54494
247.48        59.58255
247.94         49.9142
248.40        47.05695
248.85        48.03763
249.31        50.17257
249.77        51.07917
250.22        50.36139
250.68         48.5238
251.14        45.91037
251.59        44.18005
252.05         44.9268
252.51        47.65666
252.96        50.71294
253.42        52.99135
253.88        54.44509
254.33        55.03777
254.79        56.67503
255.25        60.87603
255.70        67.29971
256.16        75.29793
256.62        81.63087
257.07        81.46833
257.53        76.53011
257.99        70.08971
258.44        64.77602
258.90        62.97832
259.35        63.54473
259.81        65.54274
260.27        67.49646
260.72        67.68568
261.18        66.31451
261.63        63.92833
262.09        61.71747
262.55        60.36356
263.00         59.7435
263.46        59.63832
263.91         59.3381
264.37        58.31414
264.83        56.53904
265.28        54.31142
265.74        52.29989
266.19        50.98925
266.65        50.48895
267.11         50.4838
267.56        50.59219
268.02        50.23306
268.47        49.26014
268.93        47.89988
269.38         46.3872
269.84        45.13547
270.30        44.22665
270.75        43.50621
271.21        42.87439
271.66        42.12318
272.12        41.21099
272.57        40.21443
273.03        39.18559
273.48        38.18344
273.94        37.29821
274.39        36.46902
274.85        35.79243
275.31        35.27041
275.76        34.85593
276.22        34.56198
276.67        34.26981
277.13        33.90164
277.58        33.38766
278.04        32.77831
278.49        32.08162
278.95        31.43466
279.40        30.82137
279.86        30.28777
280.31        29.74463
280.77        29.16448
281.22        28.52147
281.68        27.90875
282.13        27.38272
282.59        27.09582
283.04        27.02995
283.50        27.14975
283.95        27.35092
284.41        27.47936
284.86        27.48374
285.32        27.42359
285.77        27.34411
286.22        27.37916
286.68         27.5465
287.13        27.75571
287.59        27.96073
288.04        28.04911
288.50        28.01945
288.95        27.89349
289.41        27.71892
289.86        27.49113
290.32         27.2757
290.77        27.08177
291.22        26.98532
291.68        27.07989
292.13        27.38072
292.59        27.88897
293.04        28.57901
293.50        29.41951
293.95        30.37623
294.40         31.4527
294.86        32.62193
295.31        33.83464
295.77        35.08719
296.22        36.37087
296.68        37.71814
297.13        39.17025
297.58        40.74706
298.04        42.43733
298.49        44.21431
298.95        46.05383
299.40        47.92072
299.85        49.81128
300.31        51.71766
300.76        53.60841
301.21          55.483
301.67        57.36068
302.12        59.20019
302.58        61.03398
303.03        62.82381
303.48        64.59528
303.94        66.39788
304.39        68.23385
304.84        70.13432
305.30        72.10797
305.75        74.07496
306.20        76.00284
306.66        77.89216
307.11        79.71187
307.57        81.49718
308.02         83.1932
308.47        84.81744
308.93        86.37211
309.38         87.8618
309.83        89.41937
310.29        91.06214
310.74        92.74646
311.19        94.33369
311.65        95.56767
312.10         96.3791
312.55        96.84782
313.00        97.19444
313.46        97.76535
313.91        98.62221
314.36        99.70387
314.82         100.821
315.27        101.6769
315.72        102.1722
316.18        102.4233
316.63        102.5748
317.08        102.9024
317.53        103.4747
317.99        104.1915
318.44        104.9222
318.89        105.4286
319.35        105.6455
319.80        105.6577
320.25        105.5965
320.70        105.6687
321.16        105.9315
321.61        106.3655
322.06        106.8523
322.51        107.2083
322.97        107.3693
323.42        107.3897
323.87        107.4276
324.32         107.759
324.78        108.3985
325.23        109.3415
325.68        110.2474
326.13        110.5669
326.59        110.1818
327.04        109.2868
327.49        108.3317
327.94         108.057
328.39        108.6338
328.85        109.8177
329.30        111.2782
329.75         112.148
330.20        112.1601
330.66        111.5458
331.11        110.7566
331.56          110.44
332.01        110.7966
332.46        111.5974
332.92        112.5462
333.37        113.3115
333.82        113.6883
334.27         113.845
334.72        113.8672
335.17        113.8677
335.63        113.9133
336.08        114.0203
336.53        114.2695
336.98        114.8579
337.43        115.8023
337.88        117.0188
338.34         118.329
338.79        119.5399
339.24        120.4837
339.69        121.1984
340.14        121.6095
340.59        121.6319
341.05        121.3405
341.50        120.7889
341.95        120.2526
342.40        120.1508
342.85        120.5807
343.30        121.4301
343.75        122.5012
344.20        123.4378
344.66        124.1078
345.11        124.5929
345.56        124.9089
346.01        125.0982
346.46        125.2118
346.91        125.2412
347.36          125.26
347.81        125.4102
348.26        125.7052
348.72        126.0827
349.17        126.4983
349.62        126.9095
350.07        127.2727
350.52        127.6218
350.97        127.7723
351.42         127.436
351.87        126.6173
352.32        125.4334
352.77         124.295
353.22        123.8023
353.67        124.0527
354.13        124.8601
354.58        125.8131
355.03        126.1701
355.48        125.7294
355.93        124.7078
356.38        123.5048
356.83         122.725
357.28        122.5014
357.73        122.6252
358.18        122.7796
358.63        122.4717
359.08        121.5821
359.53        120.2969
359.98         118.895
360.43        117.7605
360.88        116.9813
361.33        116.4375
361.78        115.9223
362.23        115.1214
362.68        113.9822
363.13        112.6379
363.58        111.3058
364.03        110.3017
364.48         109.681
364.93        109.3122
365.38        109.0143
365.83        108.5075
366.28        107.7132
366.73        106.7352
367.18        105.6555
367.63        104.5949
368.08        103.6077
368.53        102.6576
368.98        101.7792
369.43        101.0285
369.88        100.4072
370.33        99.91293
370.78        99.46957
371.23        98.94445
371.68        98.30122
372.13        97.55743
372.58        96.79391
373.03        96.14796
373.48         95.6375
373.93        95.20687
374.38         94.7449
374.83        94.08482
375.28        93.19986
375.72         92.1431
376.17        91.08399
376.62        90.15775
377.07        89.42059
377.52        88.85669
377.97        88.40746
378.42        87.98891
378.87        87.57348
379.32        87.15118
379.77        86.81841
380.22        86.71442
380.67        86.82468
381.11        87.11848
381.56        87.27545
382.01        86.86932
382.46        85.86562
382.91        84.47803
383.36        83.11417
383.81        82.32805
384.26        82.20384
384.71         82.5454
385.15        83.09942
385.60        83.41509
386.05        83.33964
386.50        83.00376
386.95        82.46343
387.40        81.81627
387.85        81.13509
388.29        80.34658
388.74        79.64579
389.19         79.0996
389.64        78.71538
390.09        78.47844
390.54        78.29779
390.98         77.9948
391.43        77.57504
391.88        77.08133
392.33        76.62246
392.78        76.30027
393.23        76.12282
393.67        76.15027
394.12         76.3176
394.57         76.0582
395.02        75.48945
395.47        75.38342
395.91        75.70505
396.36        75.68758
396.81        75.32438
397.26        75.07166
397.71         74.8973
398.15        74.56807
398.60        74.18804
399.05        73.65683
399.50        73.12834
399.95        73.11536
400.39        73.53193
400.84        73.54697
401.29        73.12031
401.74        72.98938
402.18        73.06386
402.63        72.48107
403.08        71.47288
403.53        70.99926
403.97        71.14126
404.42        71.48179
404.87        71.79919
405.32         71.8657
405.76        71.59873
406.21        71.12992
406.66        70.62704
407.11         70.3595
407.55        70.43856
408.00        70.69989
408.45        71.02859
408.90        71.41162
409.34        71.61202
409.79        71.10255
410.24        70.14986
410.68        69.65183
411.13        69.70484
411.58        69.85469
412.03        69.94555
412.47         69.9072
412.92        69.66443
413.37        69.29133
413.81         68.9098
414.26        68.75245
414.71        68.83408
415.15        69.11003
415.60        69.44546
416.05        69.68471
416.49        69.77042
416.94        69.73616
417.39        69.64742
417.83        69.59077
418.28        69.59943
418.73         69.6433
419.17        69.69373
419.62        69.71307
420.07        69.68026
420.51        69.58909
420.96        69.50317
421.41        69.42759
421.85        69.34497
422.30        69.41029
422.74        69.47936
423.19        69.25626
423.64        68.78604
424.08        68.54579
424.53         68.6067
424.98        68.69032
425.42        68.79339
425.87        69.26914
426.31        69.90142
426.76        69.74332
427.21        68.96098
427.65        68.75282
428.10         69.1091
428.54        69.23246
428.99        69.15819
429.44        68.98406
429.88        68.91251
430.33        69.67366
430.77        70.82206
431.22        71.26458
431.66         70.8686
432.11        69.91803
432.56        68.91106
433.00        68.77097
433.45        69.59051
433.89        70.78609
434.34        71.62992
434.78         71.6945
435.23        71.01166
435.67        69.36203
436.12        69.39568
436.57        69.56794
437.01        70.30229
437.46        70.53046
437.90        70.21133
438.35        69.51761
438.79        69.60673
439.24        69.57963
439.68        69.70647
440.13        70.21729
440.57        70.97784
441.02        70.96016
441.46        70.33909
441.91        70.98787
442.35        72.37726
442.80        72.16212
443.24        70.65211
443.69        70.43659
444.13        71.46805
444.58        71.91299
445.02        71.67903
445.47        71.61677
445.91        71.78308
446.36        72.00827
446.80        72.27325
447.24        72.53362
447.69        72.74682
448.13        72.89056
448.58        72.96652
449.02         72.9497
449.47        72.86953
449.91        72.74992
450.36        72.63419
450.80        72.50107
451.25        72.41453
451.69        72.40956
452.13        72.50522
452.58        72.68105
453.02        72.87259
453.47        72.98135
453.91        72.96548
454.36        72.85423
454.80        72.67504
455.24        72.40865
455.69        72.07323
456.13        71.85606
456.58         71.7978
457.02        71.29713
457.46        70.59258
457.91        71.10567
458.35        71.83763
458.79        71.97934
459.24        71.32829
459.68        70.48772
460.13        69.75041
460.57        69.47989
461.01        69.85207
461.46        69.69617
461.90        70.28162
462.34        71.16927
462.79        70.62306
463.23        70.92194
463.68        71.26137
464.12        71.09921
464.56        70.41024
465.01         69.4635
465.45        68.55389
465.89        68.42595
466.34        68.89762
466.78        69.12972
467.22        69.10885
467.67        68.50578
468.11        68.85829
468.55         68.8967
468.99        68.93156
469.44        68.82273
469.88        68.56496
470.32        68.29287
470.77        68.07302
471.21         67.9647
471.65        67.97549
472.10        68.10474
472.54        68.26537
472.98        68.26877
473.42        68.06989
473.87        67.86656
474.31        67.68589
474.75        67.14467
475.20        66.93559
475.64        66.83649
476.08        66.98823
476.52        67.00496
476.97        66.83443
477.41        66.84769
477.85        66.93197
478.29         66.7887
478.74        66.96188
479.18        67.40421
479.62        67.03549
480.06        67.03427
480.50        67.01514
480.95        67.00204
481.39         66.9791
481.83        66.83391
482.27        66.52885
482.72        66.98686
483.16        66.74814
483.60        66.69524
484.04        66.80618
484.48        67.14761
484.93        67.75545
485.37        66.79043
485.81         66.7372
486.25        66.31978
486.69        67.77258
487.14        68.12699
487.58        66.42782
488.02        67.10722
488.46        65.25506
488.90           66.15
489.34        67.28355
489.79        68.62294
490.23        67.30727
490.67         66.5248
491.11        65.94753
491.55        65.84219
491.99        66.13642
492.43        66.08498
492.88        65.70007
493.32        65.63103
493.76        65.88056
494.20        66.03291
494.64        66.03931
495.08        66.06206
495.52        66.10114
495.96         66.0091
496.41        65.84439
496.85        65.96565
497.29        66.16226
497.73        66.16861
498.17        65.24389
498.61        64.98933
499.05        65.21471
499.49        65.57601
499.93        65.69998
500.37        65.79484
500.82        65.76373
501.26         65.6047
501.70        65.41007
502.14        65.42525
502.58        65.64034
503.02        65.76174
503.46        65.77637
503.90        65.90234
504.34        66.07696
504.78        66.07628
505.22        65.88274
505.66        65.56008
506.10        65.22211
506.54        65.07648
506.98        65.14632
507.42        65.29698
507.86        65.45193
508.30        65.55374
508.74        65.56461
509.18        65.48432
509.62        65.34469
510.06        65.21809
510.50         65.1293
510.94        65.05373
511.38        65.00645
511.82        65.01443
512.26        65.07854
512.70        65.19817
513.14        65.33619
513.58         65.4267
514.02        65.45244
514.46        65.42354
514.90        65.37716
515.34        65.37896
515.78        65.43961
516.22        65.53281
516.66         65.6145
517.10        65.61508
517.54        65.52258
517.98        65.37112
518.42        65.19753
518.86        65.05795
519.30        64.97427
519.74        64.92961
520.18        64.92996
520.62        64.98156
521.06        65.07947
521.50        65.22753
521.93        65.38664
522.37        65.47066
522.81        65.46898
523.25        65.39042
523.69         65.2997
524.13        65.30386
524.57         65.4142
525.01        65.59494
525.45        65.75948
525.89        65.75034
526.32        65.53182
526.76        65.25175
527.20        64.86959
527.64        64.60944
528.08        64.47721
528.52          64.437
528.96        64.47191
529.40        64.55653
529.83        64.66697
530.27        64.81306
530.71        64.94802
531.15        65.00275
531.59        64.96364
532.03        64.84105
532.46        64.67297
532.90        64.57108
533.34        64.55058
533.78        64.55164
534.22        64.54272
534.66        64.55231
535.09        64.52296
535.53        64.32429
535.97        64.01986
536.41        63.87434
536.85        63.91623
537.28        64.01286
537.72        64.13245
538.16        64.27336
538.60        64.41087
539.04        64.54046
539.47        64.63383
539.91         64.6918
540.35        64.69917
540.79        64.65735
541.22        64.58255
541.66        64.52464
542.10        64.49033
542.54        64.47574
542.97        64.45553
543.41         64.4175
543.85        64.35049
544.29        64.27061
544.72        64.19207
545.16        64.16891
545.60        64.19671
546.04        64.28079
546.47        64.39734
546.91        64.47609
547.35        64.51893
547.79        64.58148
548.22        64.65007
548.66        64.70599
549.10        64.77029
549.53        64.66807
549.97        64.47249
550.41        64.23964
550.84        64.03721
551.28         64.1075
551.72        64.41463
552.15        64.13577
552.59        64.39089
553.03        64.08683
553.46        64.26584
553.90        64.22627
554.34        64.17857
554.77        64.14972
555.21        64.16286
555.65        64.17107
556.08        64.29417
556.52        64.36709
556.96        64.39475
557.39        64.47926
557.83        64.56744
558.27        64.33889
558.70        63.83939
559.14        63.66146
559.57        63.78566
560.01        63.79631
560.45        63.71248
560.88        63.89742
561.32        64.28172
561.75        64.45715
562.19        64.42132
562.63        64.27305
563.06        64.08713
563.50        64.18983
563.93        64.23392
564.37        64.33208
564.80        64.38142
565.24        64.22477
565.68        63.78873
566.11        64.41101
566.55        63.79357
566.98        63.74883
567.42        63.68864
567.85        63.77856
568.29        63.99895
568.72        64.31492
569.16        64.76339
569.60        64.91737
570.03        64.65966
570.47        65.25607
570.90        65.31841
571.34        64.47878
571.77        64.96815
572.21        65.40276
572.64        64.93953
573.08        65.39297
573.51        64.45061
573.95        64.50038
574.38        65.07587
574.82        65.24271
575.25        64.91564
575.69        65.00279
576.12        65.40395
576.56        64.45557
576.99        64.51231
577.42        64.74385
577.86        64.79887
578.29        65.71485
578.73        65.62228
579.16        65.41301
579.60        64.68443
580.03        64.66987
580.47        64.53086
580.90        65.49414
581.33        65.42638
581.77        65.63786
582.20        65.81415
582.64        65.91869
583.07        65.64428
583.51        64.99374
583.94        64.59956
584.37        64.65229
584.81        65.17138
585.24        65.40358
585.68        65.21492
586.11        65.11922
586.54        65.11987
586.98        64.55769
587.41        63.88254
587.85        64.79903
588.28        64.71149
588.71        64.39778
589.15        64.12952
589.58        64.75954
590.01         63.9808
590.45         64.1317
590.88        64.86868
591.31         64.8645
591.75        64.36222
592.18        63.98182
592.61        63.89553
593.05        64.55746
593.48        65.30889
593.91        64.88676
594.35        64.79921
594.78        64.17726
595.21         63.6832
595.65        64.04516
596.08        65.27998
596.51        64.98525
596.94        64.69015
597.38        64.23801
597.81        64.27385
598.24        64.99641
598.68        64.43697
599.11        64.11659
599.54        65.47974
599.97        65.04273
600.41        64.75283
600.84        64.13165
601.27        64.52471
601.70        64.55471
602.14        64.43486
602.57        64.27628
603.00         64.2977
603.43        63.71177
603.87        64.61419
604.30        64.85979
604.73        64.62763
605.16        63.77613
605.60         63.8718
606.03        63.60273
606.46        63.49618
606.89        63.32014
607.32        64.02482
607.76        63.88932
608.19        64.16289
608.62         64.3477
609.05         64.3606
609.48         64.3717
609.92        65.06664
610.35        64.53475
610.78        64.01449
611.21        63.63182
611.64        63.87542
612.07        64.17592
612.50        64.21276
612.94        64.20292
613.37         63.9267
613.80        64.31793
614.23        63.45145
614.66         63.2924
615.09        63.34159
615.52        63.62469
615.96         63.9623
616.39        64.17857
616.82        64.28136
617.25        63.68355
617.68        63.56397
618.11         63.6443
618.54        64.07234
618.97        64.11404
619.40        63.87532
619.84        63.08335
620.27        63.62554
620.70         63.6585
621.13        63.64135
621.56        63.26795
621.99        62.67123
622.42        62.55337
622.85        62.93262
623.28         62.7648
623.71        63.20757
624.14        62.97231
624.57          63.354
625.00        63.37704
625.43        63.42218
625.86        63.27933
626.29        62.99927
626.72        63.12797
627.15        63.02481
627.58        63.17043
628.01        63.25744
628.44        63.32688
628.87         63.1742
629.30        62.80247
629.73        62.89785
630.16        63.05556
630.59        62.96113
631.02         63.1262
631.45        63.35062
631.88         63.4992
632.31         63.5294
632.74        63.49022
633.17        63.40242
633.60        63.28959
634.03        63.17115
634.46        63.03517
634.89        62.89309
635.32        62.77379
635.75        62.68866
636.18        62.58524
636.61        62.49638
637.04        62.43198
637.47        62.50434
637.89        62.60658
638.32        62.72061
638.75        62.74229
639.18        62.64056
639.61        62.73515
640.04        62.52423
640.47        62.47979
640.90        62.46161
641.33        62.47313
641.76        62.50467
642.18        62.55845
642.61        62.61282
643.04        62.66639
643.47        62.71843
643.90        62.76747
644.33        62.80572
644.76         62.8292
645.18        62.81748
645.61        62.72301
646.04        62.55673
646.47        62.34806
646.90        62.14742
647.33        62.03272
647.75        62.00105
648.18        62.05829
648.61        62.21759
649.04        62.32754
649.47         62.2766
649.89         62.9037
650.32        62.52287
650.75        62.47646
651.18        62.36084
651.61        62.36995
652.03        62.50535
652.46        62.70158
652.89        62.88694
653.32        62.71479
653.74        62.38263
654.17        62.12364
654.60        63.04189
655.03        62.74052
655.46         61.8785
655.88        62.23112
656.31        65.17213
656.74        67.74481
657.16        66.34391
657.59        65.86803
658.02        63.48909
658.45        63.74551
658.87        62.75284
659.30        63.01171
659.73        62.54716
660.15        63.65298
660.58        62.47882
661.01        62.50404
661.44        62.67901
661.86        62.39703
662.29        61.71025
662.72        62.09115
663.14        62.28484
663.57        62.24564
664.00          61.746
664.42        61.71617
664.85         62.1841
665.27        62.66248
665.70        62.97468
666.13         63.1132
666.55         63.0388
666.98        62.68488
667.41        62.17402
667.83        62.11579
668.26        61.92162
668.69         62.0585
669.11         62.2589
669.54        62.39276
669.96        62.42255
670.39        62.39753
670.82        62.36523
671.24        62.35931
671.67        62.40026
672.09        62.46545
672.52        62.54265
672.94        62.59201
673.37        62.58866
673.80        62.46992
674.22        62.28729
674.65        62.16563
675.07        62.14539
675.50        62.15229
675.92        62.16648
676.35        62.16936
676.77        62.15288
677.20        62.11964
677.62        62.09802
678.05        62.13201
678.47        62.22226
678.90         62.3524
679.32        62.47307
679.75         62.5215
680.17        62.48015
680.60        62.37435
681.02        62.24822
681.45        62.17085
681.87         62.1766
682.30        62.22559
682.72        62.30588
683.15        62.39522
683.57        62.47328
684.00        62.45174
684.42        62.38872
684.85        62.45991
685.27        62.66679
685.70        62.93048
686.12        63.15125
686.54        63.21841
686.97        63.10374
687.39        62.85291
687.82        62.55455
688.24         62.3723
688.66        62.34859
689.09        62.43776
689.51        62.58995
689.94        62.68924
690.36        62.70927
690.78        62.67454
691.21        62.62631
691.63        62.61794
692.06        62.66573
692.48        62.75804
692.90        62.84576
693.33         62.8417
693.75        62.72433
694.17        62.54536
694.60        62.39647
695.02        62.28655
695.44        62.26976
695.87        62.65406
696.29        63.25093
696.71        63.15592
697.14        62.48355
697.56        62.27781
697.98        62.56997
698.41        62.63839
698.83        62.47414
699.25         62.5387
699.68        62.75843
700.10        62.84825
700.52        62.75892
700.94        62.58334
701.37        62.41005
701.79        62.38881
702.21        62.54284
702.64        62.79879
703.06        63.07192
703.48        63.21462
703.90        63.18468
704.33        63.03143
704.75        62.81158
705.17        62.60823
705.59        62.46474
706.01        62.36168
706.44        62.31215
706.86        62.36803
707.28        62.51834
707.70        62.70753
708.12        62.90611
708.55        63.14962
708.97        63.37078
709.39        63.34399
709.81        63.11639
710.23        63.00557
710.66        63.04676
711.08        63.08904
711.50          63.079
711.92        63.01817
712.34        62.90201
712.76        62.75165
713.19        62.59702
713.61        62.51982
714.03        62.52702
714.45        62.59904
714.87        62.73138
715.29        62.91262
715.71        63.12217
716.13        63.36277
716.56        63.57002
716.98        63.68077
717.40        63.66571
717.82        63.63445
718.24        63.58386
718.66        63.42907
719.08        63.19405
719.50        62.95579
719.92        62.77409
720.34        62.70801
720.76         62.7702
721.19        62.92184
721.61         63.1471
722.03        63.36787
722.45        63.54281
722.87        63.67585
723.29         63.7309
723.71        63.65748
724.13        63.46281
724.55        63.17462
724.97        62.86621
725.39        62.66814
725.81        62.61949
726.23        62.66511
726.65        62.77308
727.07        63.02538
727.49        63.16753
727.91        63.39174
728.33        63.59539
728.75        63.72708
729.17        63.76936
729.59        63.72351
730.01        63.63694
730.43        63.59174
730.85        63.60799
731.27        63.66506
731.69        63.71878
732.10        63.69583
732.52        63.58402
732.94        63.42787
733.36        63.29673
733.78        63.17883
734.20        63.08315
734.62        63.22992
735.04        63.65818
735.46        63.24592
735.88        63.84769
736.30        63.94557
736.72        64.09358
737.13        64.21902
737.55        64.26885
737.97        64.40666
738.39        64.52943
738.81        64.17054
739.23        63.49243
739.65         63.3921
740.06        63.81421
740.48        63.99601
740.90        63.88613
741.32        63.94659
741.74        64.17582
742.16        64.31897
742.57          64.356
742.99        64.34374
743.41        64.28359
743.83          64.163
744.25        63.99521
744.67        63.77158
745.08        63.58392
745.50        63.56068
745.92        63.72976
746.34        64.04893
746.75        64.38689
747.17        64.51627
747.59         64.3955
748.01        64.09192
748.42        63.73983
748.84        63.57449
749.26        63.65288
749.68        63.84752
750.09        64.06409
750.51        64.26585
750.93        64.35294
751.35        64.14805
751.76        63.73209
752.18        63.44752
752.60        63.33424
753.01        63.24006
753.43        63.15278
753.85        63.12749
754.27        63.16513
754.68        63.35524
755.10        63.50674
755.52        63.65306
755.93         63.7204
756.35        63.68615
756.77        63.62133
757.18        63.72898
757.60        64.05608
758.02          64.464
758.43        64.63688
758.85        65.06433
759.26        63.90503
759.68        63.42117
760.10        63.49607
760.51        63.71614
760.93        64.04488
761.34        64.23029
761.76        64.60185
762.18        64.62032
762.59        64.48682
763.01        64.42146
763.42        64.53963
763.84        64.58463
764.26        64.55164
764.67        64.67014
765.09        64.85925
765.50        64.53986
765.92        63.90589
766.33        63.73339
766.75        63.95588
767.16        63.98323
767.58         63.7489
768.00        63.56303
768.41        63.53543
768.83        63.84487
769.24        64.34735
769.66        64.50744
770.07        64.31333
770.49        64.09422
770.90        63.98562
771.32        64.22614
771.73        64.70931
772.15        64.84845
772.56        64.61762
772.97        64.34315
773.39         64.1517
773.80        64.10632
774.22        64.22125
774.63        64.52267
775.05        64.84499
775.46        64.98492
775.88        64.86179
776.29        64.56626
776.70        64.22595
777.12        64.06891
777.53        64.16357
777.95         64.4024
778.36        64.70259
778.77        64.88666
779.19        64.91734
779.60        64.87343
780.02        64.76937
780.43         64.6851
780.84        64.66477
781.26        64.45776
781.67        64.20656
782.09        64.60445
782.50        65.44208
782.91        65.57961
783.33        65.02367
783.74        64.77515
784.15        64.86407
784.57        64.72922
784.98        64.45225
785.39        64.33973
785.81        64.47645
786.22        64.99702
786.63        65.71253
787.04        66.08945
787.46        66.05739
787.87        65.83136
788.28        65.56717
788.70        65.40707
789.11        65.38348
789.52        65.50768
789.93        65.68904
790.35        65.68646
790.76        65.51149
791.17        65.40467
791.58        65.40704
792.00        65.33643
792.41        65.20732
792.82        65.26273
793.23        65.44738
793.65        65.24843
794.06        64.83485
794.47        65.08617
794.88        65.82466
795.29         66.0722
795.71        65.74439
796.12         65.4239
796.53        65.24065
796.94        65.09811
797.35         65.0961
797.76        65.46729
798.18        66.03616
798.59        66.34057
799.00        66.27999
799.41        66.05786
799.82         65.8011
800.23        65.66032
800.64        65.68809
801.06        65.79816
801.47        65.95357
801.88        66.00867
802.29        65.92059
802.70        65.74268
803.11        65.51397
803.52        65.29151
803.93         65.1227
804.34         64.9996
804.75        64.94922
805.17        65.07612
805.58        65.42413
805.99        65.71415
806.40        65.91858
806.81        66.53741
807.22         67.2743
807.63        66.89397
808.04        65.64476
808.45        65.04221
808.86        65.24007
809.27        65.45903
809.68        65.55365
810.09        65.63228
810.50        65.64111
810.91        65.55595
811.32         65.4827
811.73        65.58592
812.14        65.88835
812.55         66.3293
812.96        66.75319
813.37        66.87484
813.78        66.62588
814.19        66.13223
814.60        65.55518
815.01        65.10168
815.42        64.83051
815.83        64.68314
816.24        64.66612
816.65        64.78568
817.05        65.02444
817.46        65.35294
817.87        65.69537
818.28        65.88734
818.69        65.89437
819.10        65.73411
819.51        65.51618
819.92        65.45585
820.33        65.60915
820.74        65.91003
821.14        66.23522
821.55        66.37953
821.96        66.29391
822.37        66.04749
822.78        65.74008
823.19        65.53629
823.60        65.49265
824.00        65.58308
824.41        65.70355
824.82        65.78111
825.23        65.77487
825.64        65.71097
826.04        65.63227
826.45        65.56461
826.86        65.53557
827.27        65.54602
827.68        65.54946
828.08        65.49801
828.49        65.33591
828.90        65.09155
829.31        64.88853
829.72        64.92731
830.12        65.26268
830.53        65.78768
830.94        66.28904
831.35        66.35693
831.75        65.91712
832.16        65.08154
832.57        64.17241
832.97        63.68009
833.38        63.72868
833.79        64.15147
834.20        64.73975
834.60        65.15972
835.01         65.3096
835.42        65.33044
835.82        65.28083
836.23        65.18361
836.64        65.10448
837.04        64.98751
837.45        64.95657
837.86        65.28697
838.26        66.02546
838.67        67.05565
839.08        68.04952
839.48        68.37197
839.89        67.86356
840.29        66.74612
840.70        65.53973
841.11        64.82812
841.51        64.76972
841.92        65.18317
842.33        65.85998
842.73        66.42457
843.14         66.6365
843.54        66.65523
843.95        66.59566
844.35        66.69243
844.76          66.975
845.17        67.33755
845.57        67.64132
845.98        67.65169
846.38         67.3424
846.79        66.80282
847.19        66.18913
847.60        65.72131
848.00        65.48364
848.41        65.39466
848.81        65.42556
849.22        65.44281
849.62        65.44102
850.03        65.45667
850.43        65.49226
850.84        65.47849
851.24        65.45284
851.65        65.35826
852.05        65.34984
852.46        65.60071
852.86        66.11591
853.27        66.79757
853.67        67.38546
854.07        67.64005
854.48         67.4934
854.88        67.04687
855.29        66.39029
855.69         65.8226
856.10        65.40397
856.50        65.15671
856.90        65.01183
857.31        64.86184
857.71        64.72386
858.12        64.57362
858.52        64.52004
858.92        64.61765
859.33        64.85143
859.73        65.23635
860.13        65.57287
860.54        65.56761
860.94        65.20576
861.34        64.54344
861.75        63.86946
862.15        63.70329
862.55        64.13696
862.96        64.99606
863.36        65.96323
863.76        66.40898
864.17        66.15099
864.57         65.4145
864.97        64.47433
865.38        63.76792
865.78        63.46339
866.18        63.43391
866.58        63.59218
866.99        63.78157
867.39        63.95459
867.79         64.1656
868.19        64.42718
868.60        64.72247
869.00        65.06245
869.40        65.37891
869.80         65.6405
870.21        65.80727
870.61        65.91254
871.01        65.94631
871.41        65.82877
871.81        65.43833
872.22        64.78031
872.62        63.88866
873.02        63.04706
873.42        62.73192
873.82        63.05286
874.22        63.88401
874.63        64.81172
875.03        65.18573
875.43        64.84421
875.83        63.97546
876.23        63.00448
876.63        62.59818
877.03        62.91285
877.44        63.71939
877.84          64.652
878.24         65.1077
878.64        64.87669
879.04        64.03522
879.44        63.03099
879.84        62.63832
880.24        62.98275
880.64        63.77857
881.04        64.59386
881.44        64.75734
881.84        64.11423
882.24         62.9171
882.65        61.63328
883.05        60.96883
883.45        61.11041
883.85        61.84859
884.25        62.84193
884.65        63.50954
885.05        63.66738
885.45        63.49392
885.85        63.21711
886.25        63.18595
886.65        63.47864
887.05        63.93564
887.45        64.39767
887.85        64.62556
888.25        64.54092
888.65        64.24847
889.04        63.81061
889.44        63.33629
889.84        62.87045
890.24        62.39039
890.64        61.96822
891.04        61.72682
891.44        61.68949
891.84        61.84186
892.24        62.07151
892.64        62.18521
893.04         62.1573
893.44        62.06063
893.83        62.01582
894.23        62.17968
894.63        62.59707
895.03        63.15121
895.43        63.78674
895.83        64.42738
896.23        64.99496
896.63        65.49132
897.02        65.73772
897.42        65.48398
897.82        64.73772
898.22        63.64271
898.62        62.51361
899.01        61.81247
899.41         61.6636
899.81         61.9235
900.21        62.42485
900.61        62.87424
901.00        63.15269
901.40        63.33314
901.80        63.40093
902.20        63.33226
902.59        63.15774
902.99        62.86554
903.39        62.55133
903.79        62.38824
904.18        62.40871
904.58        62.57043
904.98        62.83258
905.38        63.12867
905.77        63.42474
906.17        63.75488
906.57        64.01501
906.96        64.03728
907.36        63.79219
907.76        63.34098
908.15        62.91972
908.55        62.88744
908.95        63.31785
909.34        64.09973
909.74        64.93221
910.14        65.40154
910.53        65.35441
910.93         64.9342
911.33        64.27484
911.72        63.57388
912.12         62.9921
912.52        62.50247
912.91        62.12164
913.31        61.89005
913.70        61.81052
914.10        61.84452
914.49        62.07861
914.89        62.55788
915.29        63.26447
915.68        64.16425
916.08        64.92664
916.47        65.08191
916.87        64.57396
917.26        63.54623
917.66          62.488
918.05        62.00277
918.45        62.22461
918.84        63.01786
919.24        64.01176
919.64        64.66622
920.03        64.80458
920.42        64.54751
920.82        64.17427
921.21        64.06828
921.61        64.30726
922.00        64.78537
922.40        65.24249
922.79        65.38271
923.19        65.09934
923.58        64.55499
923.98        63.96085
924.37        63.54436
924.77        63.38824
925.16        63.38177
925.55          63.484
925.95        63.60815
926.34         63.7192
926.74        63.82443
927.13        63.84847
927.52        63.60239
927.92        63.12402
928.31        62.47025
928.70        61.84018
929.10        61.51616
929.49        61.54454
929.89        61.78634
930.28        62.22979
930.67        62.73407
931.07        63.19164
931.46        63.71601
931.85        64.05814
932.24        63.86656
932.64        63.16388
933.03        62.03169
933.42        60.99672
933.82        60.83256
934.21        61.67123
934.60        63.33175
934.99        65.21985
935.39        66.24578
935.78        66.12042
936.17        65.05518
936.56        63.63426
936.96        62.79354
937.35        62.77888
937.74        63.31376
938.13        63.92505
938.53        63.88573
938.92        63.06053
939.31          61.783
939.70        60.49854
940.09         59.8068
940.49        59.82571
940.88        60.37471
941.27         61.2369
941.66        62.01661
942.05        62.53775
942.44        62.91427
942.84         63.1739
943.23        63.35177
943.62        63.48253
944.01        63.49174
944.40        63.45348
944.79        63.53765
945.18        63.74686
945.57         64.0161
945.97        64.14855
946.36        63.90335
946.75        63.20844
947.14        62.24623
947.53        61.17568
947.92        60.18612
948.31          59.375
948.70        58.71872
949.09        58.35511
949.48        58.51039
949.87        59.20154
950.26        60.33816
950.65        61.65162
951.04        62.68983
951.43        63.27636
951.82        63.45957
952.21        63.34266
952.60        63.14248
952.99        62.95989
953.38        62.76989
953.77        62.54884
954.16        62.26425
954.55        61.91137
954.94        61.49584
955.33        61.16612
955.72          61.146
956.11        61.46909
956.50        62.09814
956.89        62.65702
957.28         62.5168
957.66        61.57315
958.05        60.08249
958.44        58.62284
958.83        58.03027
959.22        58.45157
959.61         59.6409
960.00        61.09516
960.39        61.86672
960.78        61.65186
961.16        60.75283
961.55        59.65128
961.94        58.97118
962.33        58.89565
962.72        59.25515
963.11         59.8611
963.49        60.39142
963.88        60.62425
964.27        60.64779
964.66        60.65923
965.04        60.97506
965.43        61.59674
965.82        62.46243
966.21        63.14829
966.60        62.90183
966.98        61.58416
967.37        59.58871
967.76        57.65892
968.15        56.69254
968.53        56.86145
968.92        57.98898
969.31        59.55972
969.69        60.51651
970.08        60.42277
970.47        59.56555
970.86        58.70376
971.24         58.9567
971.63        60.53412
972.02        63.12637
972.40        65.86166
972.79        66.76413
973.17        65.35982
973.56        62.40911
973.95          59.202
974.33        57.38065
974.72        57.28664
975.11        58.43013
975.49         60.2429
975.88        61.54796
976.26        61.90679
976.65         61.6307
977.04        61.02678
977.42        60.52473
977.81        60.25327
978.19        60.02175
978.58         59.8823
978.96        59.93285
979.35        60.14806
979.74        60.55709
980.12        61.11864
980.51        61.48378
980.89        61.67068
981.28        61.72429
981.66        61.72142
982.05        61.76198
982.43        61.89623
982.82        62.04165
983.20         62.3719
983.59        63.10682
983.97        64.31325
984.35        65.87811
984.74        67.24213
985.12        67.71403
985.51        67.06698
985.89        65.55313
986.28         63.8179
986.66        62.74449
987.04        62.62214
987.43        63.20908
987.81         64.1152
988.20        64.47533
988.58        64.03294
988.96         62.9844
989.35        61.79161
989.73        61.09462
990.12        61.00916
990.50        61.38902
990.88        61.73343
991.27        61.22083
991.65        59.74529
992.03        57.68088
992.42        55.83962
992.80        55.28936
993.18        56.24274
993.56        58.41941
993.95        61.05093
994.33        62.77914
994.71        62.97728
995.10        62.09511
995.48        60.81926
995.86         60.2971
996.24        60.80119
996.63        61.81433
997.01        63.07324
997.39        63.74092
997.77        63.46791
998.15        62.71684
998.54         61.5171
998.92        59.71716
999.30        57.56579
999.68        55.17536
1000.06        53.35281
1000.45        53.23667
1000.83        55.09196
1001.21        58.72739
1001.59        63.23426
1001.97        66.27419
1002.35        66.84076
1002.73        65.54749
1003.12         63.5765
1003.50        62.46673
1003.88        62.71928
1004.26        63.74156
1004.64        65.32011
1005.02        66.95735
1005.40        68.26317
1005.78         69.5531
1006.16        70.20173
1006.54        69.18077
1006.92        66.56149
1007.30        62.72665
1007.69        59.11116
1008.07        57.60741
1008.45        58.74473
1008.83        62.16676
1009.21        66.65157
1009.59         69.1436
1009.97        68.27673
1010.35        64.97913
1010.73        60.79263
1011.11        57.91679
1011.49        56.90845
1011.86        57.02606
1012.24        57.74727
1012.62         58.4292
1013.00        58.86519
1013.38        59.31454
1013.76        59.81231
1014.14        60.27053
1014.52        60.59208
1014.90        60.62959
1015.28        60.35401
1015.66        59.82251
1016.04          59.098
1016.41         58.2724
1016.79        57.43058
1017.17        56.78468
1017.55        56.42629
1017.93        56.26734
1018.31        56.40305
1018.69          56.953
1019.06        57.94496
1019.44        59.49987
1019.82        61.09705
1020.20        61.55076
1020.58        60.46587
1020.95        58.07475
1021.33          55.821
1021.71        55.32684
1022.09        56.84796
1022.46        60.39631
1022.84        64.48083
1023.22        65.41445
1023.60        62.00195
1023.97        55.45116
1024.35        49.43937
1024.73        48.18451
