SpectraSmart Spectrum 2.9.0.0
--------- Device Information -----------
Spectrum Name :  反射率_0
Saving Time :  2024/04/27 00:41:11
Spectro-Module Model Name : SE2030-DUVN
Spectro-Module Serial Number : OS361AC55029948
Wavelength Start : 200
Wavelength End : 1025
Wavelength Unit : Wavelength(nm)
Spectrum Unit : Reflectance(%)
-----------Spectrum Setting ------------
Integration Time : 20ms
Average : 10
Boxcar : 0
Background removal :  enabled
linearity correction :  enabled
SC :  disabled
Intensity correction :  disabled
DWT denoise :  enabled
savitzky-golay :  disabled
FFT :  disabled
Running average :  disabled
Kalman :  disabled
High pass :  disabled
---------------BEGIN--------------------
Wavelength(nm)             Reflectance(%)
200.29               0
200.75        42.03651
201.21        38.39691
201.67        35.63498
202.13        34.06808
202.58         33.4655
203.04        33.91458
203.50         35.7626
203.96        39.27154
204.42        44.25019
204.88        50.42227
205.34        56.18121
205.80        59.18609
206.26        58.91874
206.72        55.92079
207.18         52.5102
207.64        50.82001
208.10        51.04019
208.55        53.47173
209.01        56.82217
209.47        56.81802
209.93        52.63012
210.39        47.73625
210.85        44.86108
211.31        45.32676
211.77        49.65528
212.23        60.92263
212.69        90.07603
213.14        140.4317
213.60        139.3271
214.06        105.0798
214.52        81.28033
214.98        69.81526
215.44        63.77116
215.90        58.70351
216.36        54.66496
216.81        52.43434
217.27        52.40535
217.73        55.81273
218.19        60.45928
218.65        57.57632
219.11         47.2933
219.57         36.5953
220.02        31.08042
220.48        33.33398
220.94        43.05954
221.40         61.8086
221.86        89.24359
222.32        108.1406
222.77        102.7065
223.23        83.70159
223.69        64.43311
224.15        52.69302
224.61        47.19575
225.06        44.47686
225.52        43.06474
225.98         41.3269
226.44        39.01614
226.90        36.87724
227.36        35.07873
227.81        33.91469
228.27        33.54362
228.73        33.36169
229.19        33.71485
229.65        35.14737
230.10        37.49463
230.56        40.65455
231.02        43.12734
231.48        42.54871
231.93        38.89853
232.39        33.56901
232.85        28.78007
233.31        27.37855
233.77        29.55439
234.22        34.31489
234.68        39.86557
235.14        43.43898
235.60        44.19011
236.05        42.82487
236.51        40.37591
236.97        39.06682
237.43        39.86227
237.88        42.17757
238.34        45.15831
238.80        47.66739
239.26        49.46141
239.71        51.43322
240.17        54.02331
240.63        58.38027
241.08        65.09308
241.54        72.96598
242.00        82.27236
242.46        94.85037
242.91        113.2815
243.37        140.3121
243.83        175.2402
244.28        199.1887
244.74        187.9949
245.20        145.4628
245.66         100.116
246.11        74.26544
246.57        67.30999
247.03        72.50845
247.48        83.31522
247.94        87.96561
248.40        84.71532
248.85        78.88441
249.31        74.12798
249.77         72.0714
250.22        72.29195
250.68        73.57059
251.14        75.03563
251.59        74.64259
252.05        72.10674
252.51        69.65123
252.96        67.42353
253.42        65.59306
253.88         64.1787
254.33        62.57001
254.79        62.92742
255.25        66.96005
255.70        74.03873
256.16        83.30942
256.62        90.62611
257.07          89.925
257.53        83.34441
257.99        74.98938
258.44        68.21886
258.90        65.91605
259.35        66.66752
259.81        69.18882
260.27        71.60074
260.72        71.69382
261.18        69.71632
261.63          66.496
262.09          63.488
262.55         61.5999
263.00        60.70874
263.46        60.48175
263.91         60.1334
264.37        59.05546
264.83        57.20085
265.28        54.90446
265.74        52.83254
266.19        51.45865
266.65        50.88892
267.11        50.79004
267.56        50.80894
268.02        50.41752
268.47        49.47399
268.93        48.19569
269.38        46.74512
269.84        45.42266
270.30        44.30414
270.75        43.28226
271.21        42.36971
271.66        41.52788
272.12        40.74121
272.57        40.01924
273.03        39.30616
273.48        38.48936
273.94        37.60936
274.39        36.66176
274.85        35.79884
275.31        35.09882
275.76        34.54386
276.22        34.12867
276.67        33.73711
277.13        33.29528
277.58        32.73616
278.04        32.11739
278.49        31.44574
278.95         30.8488
279.40         30.3028
279.86        29.84315
280.31        29.37417
280.77        28.86184
281.22        28.27345
281.68        27.69704
282.13         27.1805
282.59        26.86611
283.04        26.73684
283.50        26.76366
283.95        26.85921
284.41         26.8954
284.86        26.83754
285.32         26.7526
285.77        26.67771
286.22        26.72929
286.68        26.92433
287.13        27.17497
287.59          27.461
288.04        27.70996
288.50        27.91088
288.95        28.05446
289.41        28.12938
289.86        28.04868
290.32        27.86555
290.77        27.62054
291.22        27.43478
291.68        27.46918
292.13        27.76279
292.59         28.3037
293.04        29.06011
293.50        29.98793
293.95        31.04681
294.40        32.24669
294.86        33.55599
295.31        34.91513
295.77        36.31303
296.22        37.73112
296.68        39.19722
297.13        40.75166
297.58        42.40989
298.04        44.15635
298.49        45.95924
298.95        47.78755
299.40        49.61226
299.85        51.44813
300.31        53.29847
300.76        55.14277
301.21        56.99384
301.67        58.87432
302.12        60.76678
302.58        62.73969
303.03        64.74596
303.48        66.78304
303.94        68.85197
304.39         70.8836
304.84        72.88967
305.30        74.89622
305.75        76.83916
306.20        78.71638
306.66        80.54725
307.11         82.3004
307.57        84.02158
308.02        85.66805
308.47        87.26114
308.93        88.79916
309.38        90.29219
309.83        91.88022
310.29        93.57523
310.74        95.33107
311.19        96.97045
311.65        98.17529
312.10        98.87155
312.55         99.1632
313.00        99.33445
313.46        99.82914
313.91        100.7244
314.36        101.9243
314.82         103.188
315.27        104.1303
315.72        104.6277
316.18        104.8348
316.63         104.911
317.08        105.1574
317.53        105.6567
317.99        106.2904
318.44         106.973
318.89        107.5401
319.35        107.9307
319.80        108.2116
320.25        108.4096
320.70        108.5622
321.16        108.6943
321.61        108.8336
322.06        108.9916
322.51        109.2057
322.97        109.4651
323.42         109.757
323.87        110.1112
324.32        110.5952
324.78         111.164
325.23        111.8782
325.68        112.4904
326.13        112.6131
326.59        112.1898
327.04        111.3747
327.49        110.5555
327.94        110.3808
328.39        110.9926
328.85        112.1655
329.30        113.6277
329.75         114.605
330.20        114.8392
330.66        114.5157
331.11        113.9687
331.56        113.6671
332.01        113.7757
332.46        114.1222
332.92        114.5442
333.37        114.9486
333.82        115.2136
334.27        115.4579
334.72        115.6756
335.17        115.8171
335.63        115.8929
336.08         115.964
336.53        116.1663
336.98        116.7849
337.43        117.8588
337.88        119.2672
338.34        120.7617
338.79        122.0476
339.24        122.9295
339.69        123.4762
340.14         123.704
340.59        123.6716
341.05        123.4864
341.50          123.16
341.95        122.8651
342.40        122.8611
342.85        123.2155
343.30        123.8706
343.75        124.7304
344.20        125.6067
344.66        126.4039
345.11        127.1342
345.56        127.7238
346.01        128.0771
346.46        128.2037
346.91        128.1453
347.36        128.0055
347.81        127.9696
348.26        128.0808
348.72        128.2702
349.17        128.5283
349.62        128.8703
350.07        129.2602
350.52         129.716
350.97        130.0123
351.42        129.7872
351.87        129.0177
352.32        127.8352
352.77        126.6584
353.22        126.1033
353.67        126.2784
354.13        126.9954
354.58        127.8569
355.03        128.1473
355.48        127.6744
355.93        126.6505
356.38        125.4703
356.83        124.7284
357.28         124.546
357.73        124.7058
358.18        124.8753
358.63        124.5367
359.08        123.5687
359.53        122.1756
359.98        120.6379
360.43        119.3433
360.88        118.3897
361.33        117.6559
361.78        116.9879
362.23        116.1526
362.68        115.1063
363.13        113.9595
363.58        112.8331
364.03        111.8902
364.48        111.1577
364.93        110.5471
365.38        109.9885
365.83        109.3885
366.28        108.7088
366.73        107.9866
367.18        107.1945
367.63         106.282
368.08        105.2614
368.53        104.1574
368.98        103.0711
369.43        102.1645
369.88        101.4721
370.33        100.9479
370.78        100.5042
371.23        99.99249
371.68        99.36379
372.13        98.65599
372.58        97.90829
373.03        97.18385
373.48        96.49821
373.93        95.81841
374.38        95.12773
374.83        94.41455
375.28         93.6768
375.72        92.90933
376.17        92.17379
376.62        91.44061
377.07        90.72829
377.52        90.07601
377.97        89.48365
378.42        88.96696
378.87        88.52786
379.32           88.11
379.77        87.80367
380.22        87.74343
380.67        87.90337
381.11        88.26819
381.56        88.45989
382.01        87.95036
382.46        86.70324
382.91        84.97778
383.36        83.29744
383.81        82.37828
384.26        82.32692
384.71        82.89323
385.15        83.72517
385.60          84.203
386.05        84.12146
386.50        83.66298
386.95        82.94784
387.40         82.1719
387.85        81.44527
388.29        80.67071
388.74        80.01529
389.19        79.51463
389.64        79.16218
390.09        78.93632
390.54        78.78686
390.98        78.59812
391.43        78.37363
391.88        78.12392
392.33        77.83365
392.78        77.48051
393.23         77.0758
393.67        76.60758
394.12        76.19731
394.57        75.85728
395.02        75.60432
395.47        75.43953
395.91        75.34634
396.36         75.2326
396.81        75.09779
397.26        74.97354
397.71        74.82583
398.15         74.5862
398.60        74.34302
399.05        73.98461
399.50         73.5852
399.95        73.46173
400.39        73.56192
400.84        73.29419
401.29        72.70887
401.74        72.50974
402.18        72.61759
402.63        72.18586
403.08        71.36219
403.53        70.98105
403.97         71.0826
404.42        71.25429
404.87        71.36956
405.32        71.33551
405.76        71.08952
406.21        70.83143
406.66        70.60709
407.11        70.19575
407.55        69.80357
408.00        70.04045
408.45        70.76027
408.90         71.1318
409.34        70.93964
409.79        70.33401
410.24        69.55379
410.68        69.05449
411.13        68.92228
411.58        68.90121
412.03         68.8779
412.47        68.78355
412.92         68.5614
413.37        68.27596
413.81        68.00652
414.26        67.93023
414.71        68.04742
415.15         68.3195
415.60        68.64108
416.05        68.91021
416.49        69.08051
416.94         69.1652
417.39        69.18144
417.83        69.14961
418.28        69.08588
418.73        68.97071
419.17        68.84241
419.62        68.77184
420.07        68.77111
420.51        68.81297
420.96        68.85819
421.41         68.8054
421.85        68.62277
422.30        68.35912
422.74        68.04234
423.19        67.94351
423.64        68.00144
424.08        67.90366
424.53        67.67245
424.98        67.68547
425.42        67.96697
425.87         68.2661
426.31        68.48403
426.76         68.5463
427.21        68.43032
427.65        68.12334
428.10        67.73023
428.54        67.55827
428.99        67.69299
429.44         67.7293
429.88        67.73314
430.33        68.39286
430.77        69.34248
431.22        69.57446
431.66        69.10711
432.11        68.63099
432.56        68.36517
433.00        68.28471
433.45         68.4925
433.89        68.95946
434.34        69.16225
434.78        69.74928
435.23        69.13195
435.67        67.19224
436.12        67.96475
436.57        68.02122
437.01        68.42397
437.46        68.66026
437.90        68.78322
438.35        67.92529
438.79        68.34428
439.24        68.23278
439.68        68.22369
440.13        68.31231
440.57        68.53664
441.02        68.64323
441.46        68.60098
441.91        69.10051
442.35        69.78412
442.80        69.43229
443.24        68.33084
443.69        68.36224
444.13        69.39555
444.58        69.84084
445.02        69.52661
445.47        69.48402
445.91        69.74401
446.36        70.00109
446.80        70.23715
447.24        70.52287
447.69        70.79161
448.13        70.91615
448.58        70.89174
449.02        70.73066
449.47        70.50809
449.91        70.31667
450.36        70.21231
450.80        70.14949
451.25        70.14135
451.69        70.14697
452.13        70.16878
452.58        70.21362
453.02        70.25907
453.47        70.27335
453.91        70.23437
454.36        70.14942
454.80        70.02674
455.24        69.80594
455.69        69.49492
456.13        69.28649
456.58        69.22665
457.02        68.64042
457.46        68.11883
457.91        68.33566
458.35        69.08638
458.79        69.11254
459.24        68.40862
459.68        67.55015
460.13        66.86252
460.57        66.60354
461.01        66.90489
461.46        67.19186
461.90         67.8441
462.34        68.55008
462.79        68.22356
463.23        68.26367
463.68        68.26099
464.12        67.95568
464.56        67.36202
465.01        66.66138
465.45        66.02998
465.89        65.84904
466.34        65.98939
466.78        66.24696
467.22        66.58382
467.67        65.62781
468.11        65.63083
468.55        65.59821
468.99        66.05103
469.44        66.08097
469.88        65.67267
470.32        65.33605
470.77         65.1378
471.21        64.99137
471.65        64.90477
472.10        64.90524
472.54        64.96747
472.98        65.00228
473.42        64.97013
473.87        65.07232
474.31        65.18845
474.75         64.7915
475.20        64.09878
475.64         64.0433
476.08        64.55572
476.52        64.61713
476.97        64.15895
477.41         63.9452
477.85         64.1526
478.29        63.52223
478.74        64.04488
479.18        64.26572
479.62        63.94506
480.06        63.91433
480.50        63.91069
480.95         63.9984
481.39        64.15054
481.83         63.5865
482.27         63.8491
482.72        63.69638
483.16        63.59441
483.60        63.58353
484.04        63.66014
484.48        63.84606
484.93        64.00826
485.37        64.13266
485.81        63.30515
486.25        63.63266
486.69        65.28305
487.14        65.35445
487.58        63.25747
488.02        63.96563
488.46        63.18946
488.90        62.47365
489.34        64.11329
489.79        64.52015
490.23          64.078
490.67        63.47919
491.11        62.86734
491.55        62.65102
491.99        62.78062
492.43        62.67043
492.88        62.32323
493.32        62.32807
493.76        62.52748
494.20        62.68331
494.64        62.71671
495.08        62.74401
495.52        62.74725
495.96        62.69827
496.41        62.60186
496.85        62.45789
497.29        62.23652
497.73         62.2834
498.17        61.83562
498.61        61.91534
499.05        62.19014
499.49        62.25582
499.93        61.91707
500.37        61.87957
500.82        62.07898
501.26        62.17985
501.70         62.1588
502.14        62.15845
502.58        62.19917
503.02        62.27446
503.46        62.38687
503.90        62.44572
504.34        62.55083
504.78        62.50492
505.22        62.33834
505.66        62.09451
506.10        61.86642
506.54        61.72609
506.98        61.68572
507.42        62.00095
507.86        62.08638
508.30        62.21923
508.74        62.21032
509.18        62.10923
509.62        61.96422
510.06         61.8645
510.50        61.84022
510.94        61.85705
511.38        61.88527
511.82        61.87904
512.26        61.82682
512.70         61.7508
513.14        61.67519
513.58        61.63387
514.02        61.63715
514.46        61.67157
514.90        61.72086
515.34        61.76202
515.78        61.78317
516.22        61.78429
516.66        61.77123
517.10        61.75373
517.54        61.73428
517.98        61.71374
518.42        61.67443
518.86        61.58944
519.30        61.46155
519.74        61.30519
520.18        61.16793
520.62        61.12021
521.06        61.17589
521.50        61.31604
521.93        61.48891
522.37        61.58852
522.81        61.59473
523.25        61.52975
523.69        61.44487
524.13        61.42371
524.57        61.48054
525.01         61.5804
525.45        61.67203
525.89        61.67493
526.32        61.56597
526.76        61.39712
527.20        61.20254
527.64         61.0384
528.08         60.9271
528.52        60.85127
528.96        60.82031
529.40        60.84812
529.83        60.92575
530.27        61.05478
530.71        61.18489
531.15        61.24152
531.59         61.2088
532.03        61.10075
532.46        60.95997
532.90        60.89942
533.34        60.93169
533.78        60.99409
534.22        61.03843
534.66        61.06626
535.09        61.01868
535.53         60.7788
535.97        60.42893
536.41        60.25399
536.85        60.28873
537.28        60.39933
537.72        60.53342
538.16        60.65271
538.60        60.72725
539.04        60.76738
539.47        60.77311
539.91        60.78415
540.35        60.79546
540.79        60.79684
541.22        60.78054
541.66        60.75777
542.10        60.72466
542.54         60.6857
542.97        60.63827
543.41        60.60405
543.85        60.57843
544.29        60.56447
544.72        60.54591
545.16        60.53416
545.60         60.5183
546.04        60.50332
546.47        60.49863
546.91        60.53379
547.35        60.60889
547.79        60.67716
548.22        60.70467
548.66        60.82273
549.10        60.77064
549.53        60.78717
549.97         60.7846
550.41        60.64389
550.84        60.42958
551.28        60.34534
551.72        60.36675
552.15        60.40219
552.59        60.50256
553.03        60.15723
553.46        60.55201
553.90        60.57067
554.34        60.54467
554.77        60.60723
555.21        60.58405
555.65        60.65727
556.08        60.74805
556.52        60.81779
556.96        60.82703
557.39        60.88004
557.83        60.92779
558.27        60.64219
558.70        60.13509
559.14        59.94216
559.57        60.05556
560.01        60.14546
560.45        60.17577
560.88        60.24669
561.32        60.36162
561.75        60.51379
562.19         60.6717
562.63        60.57577
563.06        60.31971
563.50        60.36164
563.93         60.5981
564.37        60.72078
564.80        60.68603
565.24        60.37909
565.68        59.79638
566.11        60.32122
566.55        59.82014
566.98        59.90042
567.42          59.957
567.85        60.17505
568.29        60.51001
568.72        60.70896
569.16        60.83989
569.60        61.07751
570.03        60.99974
570.47         61.2322
570.90        61.71714
571.34        60.82247
571.77        61.29061
572.21        61.62356
572.64         61.3124
573.08         61.4742
573.51        61.03943
573.95        61.12435
574.38        61.63312
574.82        61.60773
575.25        61.42235
575.69        61.48306
576.12        61.35282
576.56        60.46988
576.99        60.64429
577.42        61.20147
577.86        61.12143
578.29        62.16571
578.73        61.94026
579.16        61.88912
579.60        61.03604
580.03        60.99492
580.47        60.84663
580.90        61.85049
581.33         61.6732
581.77        62.07908
582.20        62.26469
582.64        62.41732
583.07        61.75739
583.51        61.29333
583.94        61.10786
584.37        61.10358
584.81        61.33181
585.24        61.60806
585.68        61.75713
586.11        61.74981
586.54        61.72126
586.98         60.7977
587.41        60.56963
587.85        61.11703
588.28        61.09232
588.71        60.88976
589.15        60.66779
589.58        60.68279
590.01        60.19242
590.45        60.25925
590.88        61.27267
591.31        61.28788
591.75        60.62178
592.18        60.18903
592.61        60.22149
593.05        60.59394
593.48        61.56541
593.91        61.21902
594.35        60.89417
594.78        60.31299
595.21        60.01506
595.65        60.34662
596.08        61.28242
596.51         61.4538
596.94         60.6544
597.38        60.46494
597.81        60.89958
598.24        60.97845
598.68        60.83738
599.11        60.66494
599.54          61.672
599.97        60.88522
600.41        60.86236
600.84        60.28292
601.27        60.67414
601.70         60.6504
602.14        60.83321
602.57         60.6234
603.00        60.43263
603.43         59.8594
603.87        60.89536
604.30        61.02867
604.73          60.884
605.16        59.97066
605.60        60.13797
606.03        60.00104
606.46        60.04837
606.89        59.97247
607.32        60.29645
607.76        60.11251
608.19        60.28718
608.62        60.15676
609.05        60.05797
609.48        59.95754
609.92        60.63115
610.35        60.39835
610.78        60.13348
611.21        59.75287
611.64        60.13637
612.07        60.33397
612.50        60.22057
612.94        60.18009
613.37        60.06878
613.80        60.20053
614.23        59.58244
614.66         59.4974
615.09         59.6483
615.52        59.79636
615.96        59.85937
616.39        59.93347
616.82        60.02961
617.25         59.7849
617.68        59.72639
618.11        59.76031
618.54        59.98249
618.97        60.01799
619.40         59.8744
619.84        59.81704
620.27        59.72942
620.70        59.75506
621.13        59.83991
621.56        59.23704
621.99        58.67701
622.42        58.54147
622.85        59.09434
623.28        58.56808
623.71        58.94355
624.14        58.93615
624.57         59.5893
625.00        59.20989
625.43        59.48186
625.86        59.30887
626.29        59.23405
626.72        58.81664
627.15        59.07285
627.58        59.10478
628.01        59.07937
628.44        59.23805
628.87        59.04925
629.30        58.81232
629.73        58.41644
630.16        58.78035
630.59        58.60551
631.02         58.9407
631.45        59.32951
631.88        59.48593
632.31         59.3102
632.74        59.64509
633.17        59.18567
633.60        59.07607
634.03        58.94845
634.46        58.81732
634.89        58.68751
635.32        58.61202
635.75        58.61015
636.18         58.5948
636.61        58.57689
637.04        58.60244
637.47        58.66499
637.89        58.74522
638.32        58.77974
638.75        58.72612
639.18        58.58025
639.61        58.36023
640.04        58.14781
640.47        58.07228
640.90        58.15912
641.33        58.37192
641.76        58.62395
642.18         58.7744
642.61        58.76335
643.04        58.63864
643.47        58.46909
643.90        58.36852
644.33        58.36727
644.76        58.42777
645.18        58.50274
645.61        58.50252
646.04         58.4152
646.47        58.27925
646.90        58.13912
647.33        58.06075
647.75        58.04073
648.18        58.08058
648.61        58.18716
649.04        58.22628
649.47        58.09415
649.89        58.55345
650.32        58.07672
650.75         57.9923
651.18        57.93217
651.61        58.08687
652.03        58.41265
652.46        58.63327
652.89        58.68797
653.32        58.61201
653.74        58.58375
654.17        58.18428
654.60        58.67802
655.03        58.54357
655.46        58.00935
655.88        58.31462
656.31        61.44163
656.74        64.82212
657.16        63.40394
657.59        62.23007
658.02        59.95955
658.45         59.7448
658.87        59.16996
659.30        58.76585
659.73        58.77486
660.15        59.23428
660.58        58.32346
661.01        58.25769
661.44        58.40695
661.86        58.24584
662.29        57.74966
662.72        58.06143
663.14        58.04374
663.57        58.03554
664.00        57.79552
664.42         57.8447
664.85        58.19545
665.27        58.58242
665.70        58.86155
666.13        58.96994
666.55        58.87738
666.98        58.54113
667.41        58.06249
667.83        57.98847
668.26        57.76813
668.69        57.84309
669.11        57.98923
669.54        58.12524
669.96        58.21944
670.39        58.30969
670.82         58.4062
671.24        58.45257
671.67        58.46457
672.09        58.51771
672.52        58.60032
672.94        58.58474
673.37        58.47287
673.80        58.32508
674.22        58.19322
674.65        58.10379
675.07        58.08885
675.50        58.13284
675.92        58.19628
676.35        58.20115
676.77        58.13317
677.20        58.01287
677.62        57.89374
678.05        57.86115
678.47        57.92898
678.90        58.06887
679.32        58.21945
679.75        58.29733
680.17        58.27668
680.60         58.1882
681.02        58.07764
681.45        58.01325
681.87        58.02741
682.30        58.08755
682.72        58.17796
683.15        58.24778
683.57        58.28882
684.00        58.27844
684.42        58.25819
684.85        58.32169
685.27        58.46652
685.70        58.65526
686.12        58.81287
686.54        58.84896
686.97        58.74262
687.39        58.53429
687.82        58.28643
688.24        58.11739
688.66        58.06158
689.09        58.08882
689.51         58.1784
689.94        58.26506
690.36        58.33199
690.78        58.38142
691.21        58.43155
691.63        58.50213
692.06        58.59752
692.48        58.71492
692.90        58.80114
693.33        58.78075
693.75        58.64254
694.17        58.38694
694.60        58.13107
695.02        58.06043
695.44         58.1828
695.87        58.48152
696.29        58.81843
696.71        58.70823
697.14        58.24819
697.56        58.12169
697.98        58.34969
698.41        58.41528
698.83        58.30656
699.25        58.38295
699.68        58.55513
700.10        58.55474
700.52        58.33975
700.94        58.00635
701.37        57.69207
701.79        57.61981
702.21        57.82847
702.64        58.22892
703.06        58.68195
703.48        58.94794
703.90        58.95675
704.33        58.77647
704.75        58.50561
705.17        58.29818
705.59        58.21363
706.01        58.20932
706.44         58.2518
706.86        58.31767
707.28        58.38403
707.70        58.42989
708.12        58.48229
708.55        58.65209
708.97        58.89369
709.39        58.97261
709.81        58.88926
710.23        58.86394
710.66        58.90627
711.08        58.90024
711.50        58.82502
711.92        58.72759
712.34        58.61762
712.76        58.49651
713.19        58.38685
713.61        58.35778
714.03        58.40992
714.45        58.53039
714.87        58.69973
715.29        58.88708
715.71        59.07084
716.13        59.23989
716.56        59.36137
716.98         59.4651
717.40        59.51699
717.82         59.5181
718.24        59.44896
718.66        59.28117
719.08        59.03489
719.50        58.74772
719.92         58.4945
720.34        58.38213
720.76        58.43067
721.19        58.58574
721.61        58.82579
722.03        59.06747
722.45        59.26387
722.87        59.42243
723.29        59.49583
723.71        59.41338
724.13        59.18171
724.55        58.83755
724.97        58.47478
725.39        58.25547
725.81        58.22697
726.23         58.3264
726.65        58.50998
727.07         58.8313
727.49        59.03964
727.91         59.3137
728.33        59.55355
728.75         59.7047
729.17        59.75028
729.59        59.69667
730.01        59.58088
730.43        59.47171
730.85        59.39336
731.27        59.33012
731.69        59.28288
732.10        59.24584
732.52        59.21495
732.94        59.21483
733.36        59.24102
733.78        59.16573
734.20        58.97133
734.62        58.89874
735.04        59.06719
735.46        58.56786
735.88        59.15495
736.30        59.38942
736.72        59.71107
737.13        59.94523
737.55        60.00975
737.97        60.02438
738.39        59.97553
738.81        59.71124
739.23        59.34079
739.65        59.30559
740.06        59.55032
740.48        59.67057
740.90        59.62187
741.32        59.65506
741.74        59.78024
742.16        59.87841
742.57        59.94339
742.99        59.99171
743.41        60.00634
743.83        59.94786
744.25        59.81899
744.67         59.6244
745.08        59.45111
745.50         59.4174
745.92        59.55037
746.34        59.80988
746.75        60.08413
747.17        60.16532
747.59         60.0122
748.01        59.72639
748.42        59.41739
748.84         59.1646
749.26        59.06226
749.68        59.27129
750.09        59.66014
750.51        59.82343
750.93        59.70605
751.35        59.51973
751.76        59.33235
752.18        59.18318
752.60        59.09975
753.01        59.08497
753.43        59.09822
753.85        59.09829
754.27        59.07999
754.68         59.0728
755.10        59.09688
755.52        59.17484
755.93        59.29771
756.35        59.44133
756.77        59.63695
757.18        59.78733
757.60        59.85868
758.02         60.1541
758.43        60.61185
758.85          59.873
759.26        60.03991
759.68        59.61225
760.10        59.21638
760.51        59.72076
760.93        59.56403
761.34        59.59872
761.76        59.83112
762.18        59.94239
762.59        60.08587
763.01        60.16597
763.42        60.25138
763.84        60.28144
764.26        60.26876
764.67        60.26102
765.09        60.25613
765.50        60.02683
765.92        59.68109
766.33        59.52865
766.75        59.52916
767.16        59.50192
767.58         59.4042
768.00        59.34359
768.41        59.37218
768.83        59.58551
769.24        59.89598
769.66        60.01767
770.07        59.94141
770.49        59.81809
770.90        59.74903
771.32        59.98278
771.73        60.42802
772.15        60.56991
772.56        60.38295
772.97        60.13477
773.39        59.92167
773.80        59.79391
774.22        59.76739
774.63        59.87424
775.05        60.00666
775.46        60.05403
775.88        59.95927
776.29        59.78217
776.70        59.60413
777.12        59.57041
777.53        59.72436
777.95        59.99274
778.36          60.291
778.77         60.4449
779.19        60.41817
779.60        60.27101
780.02        60.07915
780.43        59.98623
780.84        60.03608
781.26        60.08129
781.67        60.12628
782.09        60.34918
782.50        60.64201
782.91        60.57293
783.33         60.1824
783.74         59.9757
784.15        59.98842
784.57        59.94191
784.98        59.87849
785.39        59.97882
785.81        60.24313
786.22        60.61704
786.63        61.00512
787.04        61.25368
787.46         61.3342
787.87        61.26514
788.28        61.12729
788.70        61.03598
789.11        61.00568
789.52         61.0288
789.93        61.06861
790.35        61.05751
790.76         60.9907
791.17          60.886
791.58        60.79437
792.00        60.74348
792.41        60.75368
792.82        60.90164
793.23        61.10898
793.65        61.00666
794.06        60.69638
794.47         60.7714
794.88        61.15606
795.29        61.27412
795.71        61.07668
796.12        60.91097
796.53        60.84783
796.94        60.86154
797.35        60.96998
797.76         61.1815
798.18        61.39461
798.59        61.48548
799.00        61.40325
799.41        61.18749
799.82        60.92717
800.23        60.77576
800.64         60.7715
801.06        60.83989
801.47        60.96245
801.88        61.02151
802.29        60.98382
802.70        60.89489
803.11        60.77345
803.52        60.64494
803.93        60.53644
804.34        60.43835
804.75        60.40005
805.17        60.51892
805.58        60.83388
805.99        61.20963
806.40        61.55759
806.81         61.9359
807.22        62.19508
807.63        61.89717
808.04        61.21659
808.45         60.8598
808.86        60.92559
809.27        61.09357
809.68        61.24349
810.09            61.3
810.50        61.21453
810.91        61.01635
811.32        60.83575
811.73        60.87556
812.14        61.17158
812.55        61.65155
812.96        62.14552
813.37        62.34125
813.78        62.15207
814.19        61.70105
814.60        61.15275
815.01        60.72436
815.42         60.4771
815.83         60.3485
816.24        60.33047
816.65        60.40834
817.05        60.56138
817.46        60.76902
817.87        60.99024
818.28        61.11148
818.69        61.11015
819.10        61.00231
819.51        60.84755
819.92        60.77062
820.33        60.80943
820.74        60.92237
821.14        61.07726
821.55        61.21407
821.96        61.31166
822.37        61.39863
822.78         61.4565
823.19        61.44971
823.60        61.37884
824.00        61.26484
824.41        61.13156
824.82        61.12312
825.23        61.25838
825.64        61.49435
826.04        61.74534
826.45        61.83439
826.86        61.73244
827.27        61.50442
827.68        61.20726
828.08        60.96181
828.49        60.77343
828.90        60.62714
829.31        60.56968
829.72        60.67741
830.12        60.96822
830.53        61.37302
830.94        61.76204
831.35        61.86399
831.75        61.63269
832.16        61.13153
832.57         60.5556
832.97        60.20263
833.38        60.15838
833.79        60.31961
834.20         60.6128
834.60        60.91597
835.01        61.17718
835.42        61.46954
835.82        61.73688
836.23         61.8089
836.64        61.68493
837.04        61.36563
837.45        61.05571
837.86        61.15448
838.26        61.74969
838.67         62.6964
839.08        63.62983
839.48        63.85688
839.89        63.21485
840.29        61.96728
840.70        60.67363
841.11        59.97131
841.51        60.02383
841.92        60.62533
842.33        61.53086
842.73        62.29713
843.14        62.65177
843.54        62.75668
843.95        62.73164
844.35        62.82362
844.76        63.07484
845.17        63.38025
845.57        63.61053
845.98        63.55146
846.38        63.18692
846.79         62.6087
847.19        61.99107
847.60        61.57645
848.00        61.44819
848.41        61.52145
848.81        61.71772
849.22        61.82604
849.62        61.81658
850.03        61.73329
850.43        61.63964
850.84        61.57737
851.24        61.60165
851.65        61.62743
852.05        61.71613
852.46        61.88468
852.86         62.1213
853.27        62.41689
853.67        62.62946
854.07        62.65934
854.48        62.47279
854.88        62.12206
855.29        61.67757
855.69        61.38779
856.10         61.2754
856.50        61.35681
856.90        61.50745
857.31        61.53146
857.71        61.41919
858.12        61.15415
858.52        60.89148
858.92        60.78925
859.33        60.86942
859.73        61.12586
860.13        61.35447
860.54        61.23812
860.94        60.76403
861.34        60.03506
861.75         59.3232
862.15        59.10773
862.55        59.47729
862.96        60.23985
863.36        61.17949
863.76        61.84822
864.17        62.07099
864.57        62.00487
864.97        61.67371
865.38        61.13001
865.78        60.47252
866.18        59.68258
866.58        58.96751
866.99        58.70592
867.39        58.99679
867.79        59.72681
868.19        60.63568
868.60        61.28664
869.00        61.58316
869.40        61.60719
869.80        61.44109
870.21        61.26706
870.61        61.21905
871.01        61.18535
871.41        61.12686
871.81         60.9987
872.22        60.78265
872.62        60.50838
873.02        60.23424
873.42        60.03138
873.82         59.9243
874.22        59.90043
874.63        59.87572
875.03        59.74012
875.43        59.46243
875.83        59.07846
876.23        58.72001
876.63        58.58961
877.03        58.73032
877.44        59.06191
877.84        59.43615
878.24        59.63206
878.64        59.53858
879.04        59.06187
879.44        58.48318
879.84        58.36224
880.24        58.75732
880.64        59.45263
881.04        60.08366
881.44         60.0865
881.84        59.34967
882.24          58.093
882.65          56.762
883.05        56.03383
883.45        56.09357
883.85        56.75993
884.25        57.72588
884.65        58.45604
885.05        58.76816
885.45        58.80643
885.85        58.76224
886.25        58.93564
886.65         59.3885
887.05        59.97925
887.45        60.53021
887.85        60.77496
888.25        60.64048
888.65        60.23657
889.04        59.70171
889.44        59.26423
889.84        58.98591
890.24        58.80849
890.64        58.69509
891.04        58.58353
891.44        58.45657
891.84        58.36352
892.24        58.29604
892.64        58.22044
893.04        58.14745
893.44        58.09127
893.83        58.11992
894.23        58.30598
894.63        58.66523
895.03        59.12379
895.43        59.62262
895.83        60.07393
896.23        60.41481
896.63        60.64861
897.02        60.67609
897.42        60.37576
897.82        59.77132
898.22        58.96481
898.62        58.15288
899.01        57.61778
899.41        57.44273
899.81        57.53366
900.21        57.82373
900.61        58.18644
901.00        58.54674
901.40          58.928
901.80        59.22508
902.20        59.27133
902.59        59.06102
902.99        58.62729
903.39        58.14758
903.79         57.9293
904.18        58.02859
904.58        58.34111
904.98        58.74601
905.38        59.05439
905.77        59.21259
906.17        59.32265
906.57        59.31702
906.96        59.08869
907.36        58.64592
907.76        58.01698
908.15        57.51773
908.55         57.6352
908.95        58.44471
909.34        59.80603
909.74        61.20778
910.14        61.86805
910.53        61.56339
910.93        60.55452
911.33        59.25752
911.72        58.32259
912.12        57.99665
912.52        58.08429
912.91        58.38279
913.31        58.59888
913.70        58.63936
914.10        58.57784
914.49        58.56479
914.89        58.75278
915.29        59.19066
915.68         59.8159
916.08        60.35354
916.47        60.43638
916.87        60.01033
917.26        59.16999
917.66        58.34107
918.05        58.03153
918.45        58.33831
918.84        59.16206
919.24        60.05593
919.64          60.357
920.03         59.9073
920.42        58.88906
920.82        57.81961
921.21        57.44114
921.61        57.90615
922.00           59.02
922.40        60.28757
922.79        60.95143
923.19        60.75865
923.58        60.00076
923.98        59.08058
924.37        58.52922
924.77        58.49912
925.16        58.76275
925.55        59.18818
925.95        59.54146
926.34        59.73135
926.74        59.84309
927.13         59.8018
927.52        59.40929
927.92        58.72383
928.31        57.79256
928.70        56.92294
929.10        56.57109
929.49        56.80785
929.89        57.46597
930.28        58.34867
930.67        58.98953
931.07        59.20311
931.46        59.18751
931.85        58.94334
932.24        58.53648
932.64          58.076
933.03        57.49477
933.42        57.06799
933.82        57.19527
934.21         57.9185
934.60        59.18163
934.99        60.54591
935.39        61.19644
935.78        60.96035
936.17        59.98801
936.56        58.80354
936.96        58.24888
937.35        58.52109
937.74        59.35204
938.13        60.28128
938.53        60.59518
938.92        60.12193
939.31        59.14146
939.70        57.99989
940.09        57.16357
940.49        56.74417
940.88        56.63088
941.27        56.72364
941.66        56.84491
942.05        56.93594
942.44        57.09244
942.84        57.35703
943.23        57.75922
943.62        58.29617
944.01        58.87584
944.40        59.46696
944.79        60.06598
945.18        60.61397
945.57        61.06261
945.97        61.24209
946.36        60.98295
946.75        60.25667
947.14        59.23644
947.53        58.12048
947.92        57.15611
948.31         56.4482
948.70        55.95914
949.09        55.79202
949.48        56.10366
949.87        56.86868
950.26        57.99211
950.65        59.18639
951.04        59.97535
951.43        60.19993
951.82        59.95465
952.21        59.37484
952.60        58.72522
952.99        58.15095
953.38        57.62974
953.77        57.23603
954.16        57.08047
954.55        57.16135
954.94        57.43407
955.33        57.84693
955.72          58.268
956.11        58.62075
956.50        58.94717
956.89          59.054
957.28        58.65105
957.66         57.7439
958.05        56.48413
958.44        55.34307
958.83        55.00438
959.22         55.5704
959.61        56.85218
960.00        58.36176
960.39        59.16641
960.78        58.95841
961.16        58.00185
961.55        56.78415
961.94         55.9481
962.33        55.68113
962.72        55.83918
963.11        56.18939
963.49        56.33753
963.88        56.09253
964.27        55.58516
964.66        55.18441
965.04        55.43874
965.43        56.38396
965.82        57.91428
966.21         59.3857
966.60         59.5774
966.98        58.21628
967.37        55.85975
967.76        53.51956
968.15        52.47184
968.53        52.94842
968.92        54.60546
969.31         56.8365
969.69         58.3754
970.08        58.63724
970.47        57.98659
970.86        57.02738
971.24         56.6325
971.63        57.00835
972.02        57.87861
972.40        58.80488
972.79        58.78025
973.17        57.64558
973.56        55.86314
973.95        54.10751
974.33        53.17636
974.72        53.22584
975.11        53.98594
975.49        55.15432
975.88         56.0896
976.26        56.55305
976.65        56.67784
977.04        56.57294
977.42        56.39281
977.81        56.18754
978.19        55.86768
978.58        55.63989
978.96         55.8184
979.35        56.43309
979.74        57.44151
980.12        58.58611
980.51        59.15843
980.89        59.07949
981.28        58.50011
981.66        57.79689
982.05        57.48717
982.43         57.7126
982.82         58.3175
983.20        59.17762
983.59         59.9684
983.97        60.60381
984.35        61.12922
984.74        61.46534
985.12        61.71592
985.51        61.84296
985.89        61.84134
986.28        61.77663
986.66        61.68523
987.04          61.655
987.43         61.6499
987.81        61.73661
988.20        61.92908
988.58        62.21108
988.96        62.44463
989.35        62.54878
989.73        62.41252
990.12        62.00669
990.50        61.46531
990.88        60.64341
991.27        59.35617
991.65        57.73577
992.03        55.93621
992.42        54.58879
992.80        54.52972
993.18        55.87376
993.56        58.42017
993.95        61.32564
994.33        63.05996
994.71        62.96407
995.10        61.53395
995.48        59.60079
995.86        58.51892
996.24        58.62901
996.63        59.41671
997.01        60.64182
997.39        61.48137
997.77        61.57839
998.15        61.36844
998.54        60.83947
998.92        59.80168
999.30        58.42503
999.68        56.72389
1000.06        55.42882
1000.45         55.5965
1000.83        57.48352
1001.21        60.96767
1001.59         65.0546
1001.97        67.29753
1002.35        66.79239
1002.73        64.26971
1003.12        61.33136
1003.50        60.03275
1003.88        60.90615
1004.26        63.24394
1004.64        66.32296
1005.02        68.55357
1005.40        69.15963
1005.78        68.79414
1006.16        67.41193
1006.54         64.9134
1006.92        61.67355
1007.30        57.82938
1007.69        54.60606
1008.07        53.60374
1008.45        55.22998
1008.83         59.2139
1009.21        64.36231
1009.59        67.55653
1009.97        67.32632
1010.35        64.54851
1010.73        60.52675
1011.11        57.21926
1011.49        55.29256
1011.86         54.1838
1012.24         53.8922
1012.62        54.48058
1013.00        55.87101
1013.38        58.23299
1013.76        61.14433
1014.14        63.24844
1014.52         63.8026
1014.90        62.91828
1015.28         61.2702
1015.66        59.97346
1016.04        59.36017
1016.41        59.25233
1016.79        59.32737
1017.17        59.08494
1017.55        58.40574
1017.93         57.4505
1018.31        56.80342
1018.69        57.24104
1019.06        58.92938
1019.44        61.86572
1019.82        64.94806
1020.20        65.68406
1020.58        63.31578
1020.95         58.6685
1021.33        54.20821
1021.71        52.69008
1022.09        54.49812
1022.46        59.30369
1022.84        65.23863
1023.22        67.51868
1023.60        64.34006
1023.97        57.29247
1024.35        50.31478
1024.73        47.85704
