SpectraSmart Spectrum 2.9.0.0
--------- Device Information -----------
Spectrum Name :  反射率_0
Saving Time :  2024/04/27 00:35:15
Spectro-Module Model Name : SE2030-DUVN
Spectro-Module Serial Number : OS361AC55029948
Wavelength Start : 200
Wavelength End : 1025
Wavelength Unit : Wavelength(nm)
Spectrum Unit : Reflectance(%)
-----------Spectrum Setting ------------
Integration Time : 20ms
Average : 10
Boxcar : 0
Background removal :  enabled
linearity correction :  enabled
SC :  disabled
Intensity correction :  disabled
DWT denoise :  enabled
savitzky-golay :  disabled
FFT :  disabled
Running average :  disabled
Kalman :  disabled
High pass :  disabled
---------------BEGIN--------------------
Wavelength(nm)             Reflectance(%)
200.29               0
200.75        10.59554
201.21        17.09352
201.67        23.48711
202.13        27.34099
202.58        28.58169
203.04         28.4745
203.50        27.49807
203.96        26.77135
204.42        27.13114
204.88        27.88912
205.34        29.00912
205.80        30.67454
206.26         32.3334
206.72        33.57796
207.18        33.95901
207.64         32.8571
208.10        30.14414
208.55        25.89496
209.01        19.09855
209.47         12.1132
209.93        8.948326
210.39        9.103081
210.85        11.13288
211.31        14.58976
211.77        20.74026
212.23        34.34191
212.69        68.44125
213.14        128.1614
213.60        130.3869
214.06        90.54846
214.52        62.85717
214.98        51.46586
215.44        48.01059
215.90        47.31237
216.36        47.39993
216.81        45.67972
217.27        41.34666
217.73        35.00112
218.19        26.72783
218.65        20.80607
219.11        21.05187
219.57        24.50582
220.02        28.65918
220.48         33.4627
220.94        39.66901
221.40         48.7241
221.86        60.49382
222.32        67.49717
222.77        63.42017
223.23        53.77703
223.69        44.00939
224.15        37.01681
224.61        32.46281
225.06        29.11388
225.52        27.31002
225.98        27.36274
226.44        28.95407
226.90        31.94898
227.36        34.95328
227.81        35.54667
228.27        33.58071
228.73        29.97515
229.19        26.79463
229.65        26.44252
230.10        28.95839
230.56        33.42836
231.02        37.97547
231.48          39.573
231.93        37.74623
232.39        34.06507
232.85        30.30137
233.31        28.70105
233.77        29.52565
234.22         31.9341
234.68        34.93015
235.14        37.11216
235.60        38.00048
236.05        38.08183
236.51        37.58295
236.97        36.91924
237.43        36.39491
237.88        35.87527
238.34        35.58389
238.80        36.16804
239.26        37.92518
239.71        41.33355
240.17        46.20913
240.63        51.49855
241.08        56.26924
241.54        59.79105
242.00        62.71731
242.46        67.39725
242.91        75.87109
243.37        88.85609
243.83        106.1524
244.28        118.5382
244.74        113.8849
245.20        94.54694
245.66        73.30158
246.11         59.7042
246.57        53.85488
247.03        52.32266
247.48        53.56669
247.94        54.96402
248.40        55.39482
248.85        55.47702
249.31        55.11422
249.77        53.46835
250.22        50.14505
250.68        44.57606
251.14        37.24183
251.59        31.89899
252.05         31.7924
252.51          36.134
252.96         41.4148
253.42         44.3274
253.88        44.89171
254.33        43.96758
254.79        44.24437
255.25        48.02725
255.70        54.98789
256.16        64.10387
256.62        71.64921
257.07        72.06855
257.53        67.03957
257.99        60.26943
258.44        54.84892
258.90        53.42569
259.35        54.80037
259.81        57.77603
260.27        60.60891
260.72        61.19611
261.18        59.73536
261.63        57.05655
262.09        54.51643
262.55         53.0119
263.00         52.4412
263.46        52.44736
263.91        52.33409
264.37        51.54678
264.83        50.03312
265.28        48.10388
265.74        46.30076
266.19        44.97337
266.65        44.22234
267.11        43.77893
267.56        43.44107
268.02        42.91265
268.47        42.11607
268.93        41.21116
269.38        40.21112
269.84        39.17592
270.30        38.13404
270.75         37.0421
271.21        36.07564
271.66        35.45404
272.12        35.19123
272.57        35.19647
273.03        35.18682
273.48        34.69995
273.94        33.71151
274.39        32.36557
274.85        31.03862
275.31        30.12763
275.76        29.67746
276.22        29.56277
276.67        29.54644
277.13        29.36671
277.58        28.92208
278.04          28.345
278.49        27.69631
278.95        27.16418
279.40        26.74617
279.86        26.42982
280.31        26.12419
280.77        25.80262
281.22        25.41837
281.68        25.04015
282.13        24.67713
282.59        24.40556
283.04        24.21075
283.50        24.09534
283.95        24.00907
284.41         23.8849
284.86         23.7171
285.32        23.55368
285.77        23.45066
286.22        23.54109
286.68        23.83102
287.13        24.22816
287.59        24.64886
288.04        24.92554
288.50        25.03258
288.95        24.99475
289.41        24.87284
289.86        24.69673
290.32        24.53438
290.77        24.38565
291.22        24.30851
291.68        24.37067
292.13        24.59165
292.59        24.99299
293.04        25.57351
293.50        26.33612
293.95        27.25592
294.40        28.31773
294.86        29.49286
295.31        30.73096
295.77        32.01495
296.22        33.33343
296.68        34.67499
297.13        36.01604
297.58         37.3718
298.04        38.75794
298.49        40.21682
298.95        41.83162
299.40        43.60033
299.85          45.497
300.31        47.46732
300.76        49.40522
301.21        51.29008
301.67        53.16406
302.12        55.02047
302.58         56.9371
303.03        58.88171
303.48        60.84786
303.94        62.84526
304.39        64.82992
304.84         66.8163
305.30        68.82295
305.75        70.79189
306.20         72.7205
306.66        74.61796
307.11        76.45084
307.57         78.2374
308.02        79.90077
308.47        81.46127
308.93        82.93903
309.38        84.37357
309.83        85.94312
310.29          87.673
310.74        89.50271
311.19        91.26606
311.65        92.66035
312.10        93.59847
312.55        94.16992
313.00        94.59824
313.46         95.2394
313.91        96.15958
314.36         97.2868
314.82        98.44124
315.27        99.34395
315.72        99.89512
316.18        100.2063
316.63        100.3971
317.08        100.7008
317.53        101.1835
317.99        101.7666
318.44        102.3551
318.89        102.7682
319.35        102.9596
319.80        102.9975
320.25        102.9997
320.70        103.1499
321.16        103.4896
321.61        103.9996
322.06        104.5476
322.51        104.9264
322.97        105.0694
323.42        105.0403
323.87        105.0056
324.32        105.2589
324.78        105.8242
325.23        106.6859
325.68        107.5354
326.13        107.8726
326.59        107.5855
327.04         106.863
327.49        106.0743
327.94        105.8322
328.39        106.2841
328.85        107.2095
329.30        108.3953
329.75        109.1976
330.20        109.4029
330.66        109.1744
331.11        108.7941
331.56        108.6366
332.01        108.8377
332.46        109.2573
332.92        109.7463
333.37         110.229
333.82        110.5901
334.27        110.9176
334.72         111.224
335.17        111.5004
335.63        111.7562
336.08        112.0434
336.53        112.4184
336.98        113.0329
337.43         113.903
337.88        114.9454
338.34        116.0411
338.79        117.1113
339.24        118.0235
339.69         118.791
340.14        119.2985
340.59        119.3842
341.05        119.0959
341.50         118.512
341.95        117.9158
342.40        117.7347
342.85        118.0775
343.30        118.8343
343.75        119.8226
344.20        120.7155
344.66        121.3905
345.11        121.9198
345.56         122.322
346.01        122.6417
346.46        122.9147
346.91        123.1176
347.36        123.2854
347.81        123.5012
348.26        123.7741
348.72         124.075
349.17        124.3918
349.62         124.732
350.07          125.08
350.52        125.4609
350.97        125.7216
351.42        125.6221
351.87        125.1465
352.32        124.3644
352.77        123.6084
353.22        123.3669
353.67        123.7132
354.13        124.5049
354.58         125.339
355.03        125.4972
355.48        124.8178
355.93        123.5265
356.38        122.1253
356.83        121.3686
357.28        121.4016
357.73        121.9648
358.18        122.6004
358.63        122.5718
359.08        121.6938
359.53        120.2274
359.98        118.5531
360.43        117.2162
360.88        116.3577
361.33        115.8106
361.78        115.3521
362.23        114.6429
362.68        113.6135
363.13        112.4113
363.58        111.2346
364.03        110.3599
364.48        109.8358
364.93        109.5383
365.38        109.2982
365.83        108.8622
366.28         108.159
366.73        107.2771
367.18        106.3062
367.63        105.3815
368.08        104.5508
368.53        103.7697
368.98         103.032
369.43         102.328
369.88        101.6483
370.33        101.0108
370.78         100.388
371.23        99.73084
371.68        99.03064
372.13        98.28663
372.58        97.55154
373.03        96.91172
373.48        96.37263
373.93        95.90245
374.38        95.40626
374.83        94.73918
375.28        93.88261
375.72         92.8768
376.17        91.89121
376.62        91.06539
377.07        90.44867
377.52        90.01646
377.97        89.69003
378.42        89.35315
378.87        88.96679
379.32        88.52761
379.77        88.14275
380.22        87.96795
380.67        87.99845
381.11        88.20701
381.56        88.27807
382.01         87.7967
382.46        86.73592
382.91        85.30843
383.36        83.93103
383.81        83.16746
384.26         83.0974
384.71        83.51978
385.15        84.14735
385.60        84.47341
386.05        84.33575
386.50        83.88333
386.95        83.22195
387.40        82.52574
387.85        81.88441
388.29        81.20109
388.74        80.62737
389.19        80.16997
389.64        79.82365
390.09         79.5869
390.54         79.4063
390.98        79.16366
391.43        78.87329
391.88        78.54771
392.33        78.23325
392.78        77.97502
393.23        77.77472
393.67        77.64104
394.12        77.58621
394.57        77.32217
395.02        76.90563
395.47        76.70261
395.91        76.70528
396.36        76.55167
396.81        76.25658
397.26         76.0321
397.71        75.86407
398.15        75.64091
398.60         75.4531
399.05        75.16383
399.50        74.83362
399.95        74.83858
400.39        75.08395
400.84        74.79128
401.29        74.04867
401.74        73.80508
402.18         74.0053
402.63        73.66611
403.08         72.9153
403.53        72.61773
403.97        72.80298
404.42         73.0451
404.87        73.20136
405.32        73.17678
405.76        72.91858
406.21        72.57219
406.66        72.20682
407.11        71.82932
407.55        71.58916
408.00        71.62103
408.45        71.88661
408.90        72.31527
409.34        72.64184
409.79         72.2606
410.24        71.38617
410.68        70.93652
411.13        70.99454
411.58        71.04651
412.03        70.99141
412.47        70.91437
412.92        70.76942
413.37        70.56789
413.81        70.38303
414.26         70.3894
414.71        70.58067
415.15         70.9303
415.60        71.29739
416.05        71.51643
416.49        71.53252
416.94        71.38097
417.39        71.15247
417.83        70.97181
418.28        70.88879
418.73        70.88089
419.17        70.90817
419.62        70.90672
420.07        70.85096
420.51        70.73819
420.96        70.66262
421.41        70.66956
421.85        70.72856
422.30         70.9856
422.74        71.23775
423.19         71.0447
423.64        70.48228
424.08        70.22227
424.53        70.31271
424.98        70.36179
425.42        70.38491
425.87        70.62357
426.31        70.99551
426.76        71.17799
427.21         71.1521
427.65        71.01331
428.10        70.79709
428.54        70.73504
428.99        70.90179
429.44        70.74541
429.88        70.47763
430.33        71.32013
430.77        72.75812
431.22        73.12789
431.66        72.40212
432.11        71.65014
432.56        71.18885
433.00        71.07498
433.45         71.5071
433.89        72.36732
434.34        72.78795
434.78        74.27929
435.23        72.40468
435.67        70.55907
436.12        71.14719
436.57        71.30847
437.01        71.78262
437.46        72.05391
437.90        72.19206
438.35        71.28863
438.79        71.84232
439.24        71.82398
439.68        71.91924
440.13        72.14236
440.57        72.48516
441.02         72.5867
441.46        72.44582
441.91        72.85183
442.35        73.48744
442.80         73.2317
443.24        72.30067
443.69        72.29874
444.13        73.14314
444.58         73.5173
445.02        73.37225
445.47         73.4567
445.91        73.78497
446.36        74.06598
446.80         74.2722
447.24        74.47081
447.69        74.64452
448.13        74.74809
448.58        74.79256
449.02        74.76273
449.47        74.68913
449.91        74.58872
450.36        74.50035
450.80        74.40482
451.25        74.34112
451.69         74.3059
452.13        74.31387
452.58        74.35151
453.02        74.40238
453.47        74.44839
453.91        74.47051
454.36        74.47758
454.80        74.43079
455.24        74.24805
455.69        73.94165
456.13        73.57781
456.58        73.27744
457.02        72.90868
457.46         72.6226
457.91        72.84681
458.35        73.31096
458.79        73.26962
459.24        72.72006
459.68        71.93051
460.13        71.21404
460.57         71.0517
461.01        71.11388
461.46          71.611
461.90        72.19732
462.34         72.7117
462.79        72.43799
463.23         72.4917
463.68         72.6145
464.12        72.46753
464.56        72.00484
465.01        71.30368
465.45        70.54395
465.89        70.24995
466.34        70.34659
466.78        70.56978
467.22        70.86306
467.67        70.21725
468.11        70.19333
468.55        70.22057
468.99        70.63582
469.44        70.67532
469.88        70.32406
470.32        70.00261
470.77        69.78855
471.21        69.64665
471.65        69.58861
472.10        69.62388
472.54        69.70261
472.98        69.71427
473.42         69.6203
473.87        69.59809
474.31        69.56374
474.75        69.14301
475.20        68.49957
475.64        68.36654
476.08        68.74749
476.52        68.73961
476.97        68.24099
477.41        68.57381
477.85        68.84429
478.29        68.16032
478.74        68.79359
479.18        69.15228
479.62        68.88059
480.06        68.86523
480.50        68.79192
480.95        68.65408
481.39        68.44746
481.83        68.37292
482.27        67.99223
482.72        68.56339
483.16        68.29842
483.60        68.40944
484.04        68.38612
484.48        68.58669
484.93        68.59559
485.37        68.43501
485.81        68.00024
486.25        67.69012
486.69        70.03769
487.14        70.14927
487.58         68.4065
488.02        68.53992
488.46        67.61848
488.90         67.2013
489.34        68.45604
489.79        69.23664
490.23        68.53191
490.67        67.98096
491.11          67.438
491.55        67.31671
491.99        67.55328
492.43        67.52317
492.88        67.23656
493.32        67.22567
493.76        67.48205
494.20        67.66036
494.64        67.71554
495.08        67.76144
495.52        67.78612
495.96        67.70113
496.41         67.5323
496.85        67.47838
497.29        67.41039
497.73        67.33322
498.17        66.49622
498.61        66.37811
499.05        66.71949
499.49        67.09524
499.93        67.15411
500.37        67.26887
500.82        67.35174
501.26        67.30763
501.70        67.17524
502.14        67.14964
502.58        67.26396
503.02        67.19216
503.46        67.29884
503.90        67.40407
504.34        67.54383
504.78         67.5299
505.22        67.34383
505.66        67.02303
506.10        66.68121
506.54        66.54211
506.98        66.60892
507.42        66.74754
507.86        66.84254
508.30        66.82652
508.74        66.89885
509.18        66.81644
509.62        66.68494
510.06         66.5919
510.50        66.55845
510.94        66.54647
511.38        66.54653
511.82        66.55333
512.26        66.56165
512.70        66.58543
513.14        66.60976
513.58        66.60455
514.02        66.56846
514.46         66.5072
514.90        66.46036
515.34        66.49321
515.78        66.61282
516.22        66.79302
516.66        66.97395
517.10        67.05951
517.54        67.02438
517.98        66.90069
518.42        66.73602
518.86        66.58964
519.30        66.48487
519.74        66.45866
520.18        66.49349
520.62        66.43224
521.06        66.32784
521.50        66.48109
521.93        66.82584
522.37        66.97088
522.81         66.8876
523.25        66.76176
523.69        66.66281
524.13        66.62837
524.57        66.67633
525.01        66.78545
525.45        66.89063
525.89         66.8872
526.32        66.74724
526.76        66.53016
527.20        66.28384
527.64        66.08813
528.08        65.97067
528.52        65.90522
528.96        65.89188
529.40        65.93097
529.83        66.00857
530.27        66.13118
530.71         66.2511
531.15        66.29784
531.59        66.25837
532.03        66.14637
532.46         66.0025
532.90        65.94186
533.34        65.97446
533.78        66.02993
534.22        66.06643
534.66        66.10084
535.09        66.07112
535.53        65.85049
535.97        65.50045
536.41        65.28667
536.85          65.244
537.28        65.24191
537.72        65.27752
538.16        65.39537
538.60        65.57707
539.04        65.80307
539.47         66.0063
539.91        66.12665
540.35        66.13567
540.79        66.05502
541.22        65.92665
541.66        65.84463
542.10        65.82589
542.54        65.84405
542.97        65.86723
543.41         65.8755
543.85        65.84908
544.29        65.81062
544.72        65.74898
545.16        65.67787
545.60        65.59478
546.04        65.52233
546.47        65.48932
546.91        65.51851
547.35        65.62933
547.79        65.82832
548.22        66.05692
548.66        66.25909
549.10        66.42479
549.53        66.32858
549.97        66.04688
550.41        65.77814
550.84        65.63654
551.28        65.62757
551.72        65.67554
552.15        65.78269
552.59        66.00975
553.03        65.40436
553.46        65.93183
553.90        65.84116
554.34        65.69907
554.77         65.5564
555.21         65.5041
555.65        65.37887
556.08        65.55291
556.52        65.70065
556.96        65.84076
557.39        65.89408
557.83        65.83663
558.27        65.54903
558.70        65.13868
559.14        64.99062
559.57        65.09651
560.01        65.21542
560.45        65.31595
560.88        65.47033
561.32         65.6789
561.75        65.91533
562.19        66.12531
562.63        66.05069
563.06        65.75018
563.50        65.62075
563.93        65.62305
564.37        65.56303
564.80        65.47676
565.24        65.38316
565.68        65.15918
566.11        65.88962
566.55        65.19086
566.98        65.13264
567.42        65.16667
567.85        65.03838
568.29        65.49554
568.72         65.8406
569.16        66.29961
569.60        66.45326
570.03        66.50143
570.47        66.59978
570.90        66.90402
571.34        65.99175
571.77        66.73856
572.21         66.7908
572.64        66.67489
573.08         67.1263
573.51        66.14207
573.95        66.20211
574.38        66.81229
574.82        66.99088
575.25        66.57511
575.69        66.61243
576.12        66.81705
576.56        65.85612
576.99         66.0981
577.42        66.27649
577.86        66.51938
578.29        67.25881
578.73        67.35607
579.16        67.16695
579.60        66.43732
580.03        66.44511
580.47        66.34485
580.90        67.08179
581.33        66.97705
581.77        67.27673
582.20        67.42903
582.64        67.56757
583.07        66.94724
583.51        66.54335
583.94        66.42072
584.37        66.45986
584.81        66.69006
585.24         66.7986
585.68        66.69724
586.11        66.82197
586.54          66.872
586.98         66.0371
587.41        65.81171
587.85        66.30856
588.28        66.14541
588.71        65.82262
589.15        65.70939
589.58         66.1948
590.01        65.99976
590.45        65.84951
590.88        66.54729
591.31        66.43175
591.75        66.00195
592.18         65.6526
592.61        65.57824
593.05        66.17121
593.48        67.09363
593.91        66.76372
594.35        66.68178
594.78        65.90441
595.21        65.42469
595.65        65.70678
596.08        66.84843
596.51        66.76437
596.94        66.19363
597.38        65.81277
597.81        65.80485
598.24        66.61765
598.68        66.08724
599.11        65.73766
599.54        67.15939
599.97        66.87956
600.41        66.28468
600.84        65.64053
601.27        66.14127
601.70        66.15523
602.14        66.11034
602.57        65.93828
603.00        65.91815
603.43        65.17993
603.87        66.00115
604.30        66.12302
604.73        66.27161
605.16        65.54763
605.60        65.48855
606.03        65.29742
606.46        65.37906
606.89        65.37038
607.32        65.99857
607.76        65.47093
608.19        65.93333
608.62        65.76663
609.05        65.63066
609.48        65.51725
609.92        66.34245
610.35        65.85187
610.78        65.16894
611.21        65.63384
611.64        65.35225
612.07        65.65155
612.50        65.52764
612.94        65.57277
613.37        65.63305
613.80        65.57594
614.23        65.19989
614.66        65.08464
615.09        65.18063
615.52        65.27828
615.96        65.29767
616.39        65.32253
616.82         65.3881
617.25        64.97273
617.68        65.00165
618.11         65.0921
618.54        65.43298
618.97        65.51705
619.40        65.30233
619.84        65.35027
620.27        65.08205
620.70        65.03721
621.13        64.98216
621.56        64.59066
621.99        63.98409
622.42        63.80296
622.85        64.06088
623.28        64.18784
623.71        64.26714
624.14        64.29512
624.57        64.97176
625.00        64.87167
625.43        64.92204
625.86        64.79681
626.29        64.85316
626.72        64.15124
627.15        64.61321
627.58        64.57907
628.01          64.507
628.44        64.73682
628.87          64.632
629.30        64.23552
629.73        64.22646
630.16        64.34541
630.59        64.26289
631.02        64.43589
631.45         64.6615
631.88        64.79208
632.31        64.76878
632.74        64.91685
633.17        64.74478
633.60        64.64129
634.03        64.47572
634.46        64.26093
634.89        64.03718
635.32        63.89625
635.75        63.86678
636.18        63.85632
636.61        63.85994
637.04        63.90555
637.47        63.97893
637.89        64.05865
638.32        64.10192
638.75        64.10408
639.18        64.06065
639.61        63.97522
640.04        63.86997
640.47        63.78267
640.90        63.72874
641.33        63.70726
641.76        63.71635
642.18        63.75647
642.61        63.80407
643.04        63.86457
643.47        63.93901
643.90        64.03008
644.33        64.12825
644.76        64.22181
645.18        64.28419
645.61        64.26083
646.04        64.15276
646.47        63.98262
646.90        63.79291
647.33        63.64713
647.75        63.55001
648.18        63.53627
648.61        63.61955
649.04        63.64919
649.47        63.52953
649.89         64.0762
650.32        63.62475
650.75        63.73494
651.18        63.90906
651.61        64.05186
652.03        64.13625
652.46        64.15583
652.89        64.11848
653.32         63.9813
653.74        63.89451
654.17        63.55896
654.60        64.00571
655.03        63.84778
655.46        63.08077
655.88          63.721
656.31        66.74525
656.74         70.4436
657.16        69.16368
657.59        67.69525
658.02        65.35216
658.45         64.9278
658.87        64.16284
659.30        64.27913
659.73        63.89489
660.15        65.02859
660.58        63.85171
661.01        63.76473
661.44        63.74632
661.86        63.63928
662.29        63.37126
662.72        63.69701
663.14        63.41907
663.57        63.39214
664.00        63.33559
664.42        63.44047
664.85        63.70787
665.27        64.04125
665.70        64.30511
666.13        64.38399
666.55        64.25591
666.98         63.8882
667.41        63.38808
667.83        63.34997
668.26         63.1604
668.69        63.28743
669.11        63.49049
669.54        63.66238
669.96        63.76104
670.39        63.91943
670.82        64.09947
671.24        63.96626
671.67        63.63308
672.09        63.64052
672.52        63.96597
672.94        64.09444
673.37        64.00269
673.80        63.94674
674.22        63.95179
674.65        63.91788
675.07        63.86415
675.50        63.79172
675.92        63.71254
676.35        63.64646
676.77         63.6019
677.20        63.56734
677.62        63.55145
678.05        63.57029
678.47        63.61911
678.90        63.69406
679.32        63.76804
679.75         63.8124
680.17         63.8155
680.60        63.78625
681.02        63.74586
681.45        63.73391
681.87        63.77359
682.30        63.81721
682.72        63.86146
683.15        63.93232
683.57        64.00146
684.00        63.90365
684.42        63.71719
684.85        63.71599
685.27         63.9109
685.70         64.1759
686.12        64.40467
686.54        64.49335
686.97        64.40804
687.39         64.1922
687.82        63.92622
688.24         63.7607
688.66        63.73664
689.09        63.81179
689.51        63.94844
689.94        64.05294
690.36        64.10148
690.78        64.10565
691.21        64.09988
691.63        64.12584
692.06        64.19708
692.48        64.31216
692.90        64.40335
693.33        64.36523
693.75        64.17864
694.17        63.86553
694.60        63.57695
695.02        63.49296
695.44        63.64381
695.87        64.14478
696.29        64.76209
696.71        64.65566
697.14        63.95714
697.56        63.70018
697.98        63.93296
698.41        64.09227
698.83         63.8844
699.25        64.04127
699.68        64.36209
700.10        64.47062
700.52        64.29938
700.94        63.98064
701.37        63.65965
701.79        63.56515
702.21        63.74128
702.64        64.08671
703.06        64.47604
703.48        64.69518
703.90         64.6812
704.33        64.50593
704.75        64.24343
705.17        64.00402
705.59        63.84289
706.01        63.72959
706.44        63.68369
706.86        63.76992
707.28        63.97648
707.70         64.2451
708.12        64.52625
708.55        64.82666
708.97        65.07053
709.39        65.02911
709.81        64.77109
710.23        64.65923
710.66        64.73743
711.08        64.84011
711.50         64.8808
711.92        64.81265
712.34        64.62289
712.76        64.34991
713.19        64.06622
713.61        63.92416
714.03        63.95053
714.45        64.10694
714.87        64.34621
715.29        64.59619
715.71        64.82033
716.13        65.01904
716.56        65.16479
716.98        65.30294
717.40        65.39722
717.82        65.43698
718.24        65.39262
718.66         65.2233
719.08        64.95058
719.50        64.62614
719.92        64.33317
720.34        64.18887
720.76        64.21966
721.19        64.36465
721.61         64.6223
722.03        64.93741
722.45        65.25977
722.87        65.58128
723.29        65.80318
723.71        65.77201
724.13        65.47603
724.55        64.97815
724.97        64.42266
725.39         64.0538
725.81         63.9463
726.23        64.01768
726.65        64.20528
727.07        64.54137
727.49        64.74432
727.91        65.02293
728.33        65.27819
728.75        65.46569
729.17         65.5649
729.59        65.56482
730.01         65.4938
730.43        65.40966
730.85        65.33495
731.27        65.26829
731.69        65.19449
732.10        65.08181
732.52         64.9269
732.94        64.75867
733.36        64.64526
733.78        64.55261
734.20        64.47566
734.62        64.69035
735.04        65.19795
735.46        64.68283
735.88        65.08982
736.30        65.12576
736.72        65.36891
737.13        65.55317
737.55        65.62178
737.97        65.84208
738.39         66.1021
738.81        65.91012
739.23        65.38831
739.65        65.31593
740.06        65.65373
740.48        65.78823
740.90        65.68286
741.32        65.71484
741.74        65.86813
742.16        65.98355
742.57        66.06361
742.99         66.0061
743.41        65.78058
743.83        66.07269
744.25        65.69237
744.67        65.58547
745.08        65.46933
745.50         65.4706
745.92        65.60257
746.34        65.84634
746.75        66.09702
747.17        66.13699
747.59        65.94025
748.01        65.57409
748.42        65.18163
748.84        65.01471
749.26        65.13032
749.68        65.38224
750.09        65.66124
750.51        65.93487
750.93        66.07923
751.35        65.85571
751.76        65.36364
752.18        65.03573
752.60        64.92516
753.01        64.83111
753.43        64.73681
753.85        64.72711
754.27        64.80807
754.68        64.98809
755.10        65.21658
755.52        65.40042
755.93        65.49077
756.35        65.47682
756.77        65.49684
757.18        65.55943
757.60        65.64897
758.02        66.25148
758.43        67.13697
758.85        66.11557
759.26        65.48194
759.68        65.04517
760.10        65.46107
760.51         65.8549
760.93        66.04985
761.34        65.94517
761.76        65.63538
762.18        65.74937
762.59        66.26877
763.01        66.39567
763.42        66.17661
763.84        66.12482
764.26        66.27015
764.67        66.37496
765.09        66.41679
765.50        66.14397
765.92        65.71426
766.33        65.68069
766.75        65.92377
767.16        65.88228
767.58        65.52493
768.00        65.20161
768.41        65.09422
768.83        65.52261
769.24        66.23997
769.66        66.44514
770.07        66.11942
770.49        65.61334
770.90        65.22353
771.32        65.70213
771.73        66.81221
772.15        67.19202
772.56        66.74603
772.97        66.25121
773.39        65.92091
773.80        65.74496
774.22        65.77145
774.63        66.05177
775.05        66.40076
775.46        66.57888
775.88        66.49043
776.29        66.23471
776.70        65.93217
777.12        65.80092
777.53        65.90639
777.95        66.13427
778.36        66.41103
778.77        66.58109
779.19        66.61475
779.60        66.58738
780.02        66.50612
780.43        66.44529
780.84        66.45164
781.26        66.25526
781.67        66.00871
782.09        66.48841
782.50        67.45104
782.91        67.58703
783.33        66.93967
783.74        66.70991
784.15        66.93574
784.57        66.95042
784.98        66.75713
785.39        66.58479
785.81        66.50434
786.22        66.67394
786.63        67.02402
787.04        67.23627
787.46         67.2777
787.87        67.27017
788.28        67.29535
788.70        67.36039
789.11        67.44705
789.52        67.69549
789.93        67.96249
790.35        67.71809
790.76        67.07526
791.17        66.75407
791.58        66.83448
792.00        66.78111
792.41        66.60497
792.82        66.82677
793.23        67.31863
793.65        67.21617
794.06        66.69054
794.47        66.88583
794.88        67.64511
795.29        67.88105
795.71        67.52412
796.12        67.19214
796.53        67.02206
796.94        66.98466
797.35        67.12876
797.76        67.46808
798.18        67.84785
798.59        68.05714
799.00        68.01539
799.41        67.77956
799.82         67.4726
800.23        67.30866
800.64        67.34129
801.06        67.47124
801.47        67.65088
801.88        67.71112
802.29          67.605
802.70        67.39462
803.11        67.13814
803.52        66.92226
803.93         66.7948
804.34        66.73447
804.75        66.74858
805.17        66.87962
805.58        67.15551
805.99        67.40456
806.40        67.59821
806.81        68.01363
807.22        68.46633
807.63        68.22134
808.04        67.43378
808.45         67.0213
808.86        67.08618
809.27         67.1701
809.68        67.19431
810.09        67.23365
810.50        67.26292
810.91        67.26704
811.32        67.31539
811.73        67.51731
812.14        67.87852
812.55        68.34425
812.96        68.78448
813.37        68.96272
813.78        68.81103
814.19        68.42353
814.60        67.91212
815.01        67.41899
815.42        66.99242
815.83        66.59816
816.24        66.28516
816.65        66.14777
817.05        66.21938
817.46        66.46464
817.87        66.79679
818.28        67.02331
818.69        67.09492
819.10        67.03291
819.51        66.94851
819.92        67.05297
820.33        67.38679
820.74        67.86906
821.14        68.33424
821.55        68.52129
821.96        68.37613
822.37        67.98476
822.78        67.50902
823.19          67.222
823.60         67.2084
824.00        67.41186
824.41        67.67534
824.82         67.8297
825.23        67.80457
825.64        67.66676
826.04        67.47396
826.45        67.27361
826.86        67.11322
827.27        66.98138
827.68        66.88779
828.08         66.8812
828.49        66.91645
828.90         66.9963
829.31        67.13436
829.72        67.34858
830.12        67.64579
830.53        67.95464
830.94        68.17249
831.35         68.0891
831.75        67.69115
832.16        67.03761
832.57        66.34319
832.97        65.92519
833.38        65.86809
833.79        66.06495
834.20        66.41441
834.60        66.74345
835.01        66.98907
835.42        67.24475
835.82        67.46597
836.23        67.49947
836.64        67.36089
837.04        67.04128
837.45        66.77688
837.86        67.02582
838.26        67.87773
838.67        69.15853
839.08        70.42077
839.48        70.81686
839.89        70.13962
840.29        68.70618
840.70        67.16051
841.11        66.24745
841.51        66.16303
841.92         66.6647
842.33        67.51497
842.73        68.28436
843.14        68.68826
843.54        68.90188
843.95         68.9829
844.35        69.07669
844.76        69.20663
845.17        69.29156
845.57        69.29174
845.98        69.14313
846.38         68.8678
846.79        68.51296
847.19         68.1603
847.60        67.90065
848.00        67.77621
848.41          67.739
848.81        67.79321
849.22        67.85747
849.62        67.94307
850.03        68.05879
850.43        68.18258
850.84        68.21532
851.24        68.18288
851.65        68.02729
852.05        67.93023
852.46        68.10471
852.86        68.57004
853.27         69.2318
853.67         69.7801
854.07        69.89825
854.48        69.51969
854.88        68.78458
855.29        67.87326
855.69        67.25517
856.10        67.02608
856.50        67.12988
856.90        67.41602
857.31        67.63914
857.71        67.75578
858.12        67.78442
858.52        67.75732
858.92        67.61143
859.33        67.33894
859.73        66.97993
860.13         66.5909
860.54        66.30824
860.94         66.2152
861.34        66.27556
861.75        66.43237
862.15        66.62051
862.55        66.78161
862.96         66.8849
863.36        66.97529
863.76        67.05209
864.17        67.09541
864.57         67.1239
864.97        67.03384
865.38        66.68035
865.78        66.08816
866.18        65.31623
866.58         64.5808
866.99        64.25279
867.39        64.45692
867.79        65.08076
868.19        65.89607
868.60        66.53086
869.00        66.90173
869.40        67.05554
869.80        67.10142
870.21        67.24815
870.61        67.59429
871.01        67.99812
871.41        68.25289
871.81        68.08329
872.22        67.46086
872.62         66.4943
873.02        65.48833
873.42        64.95084
873.82        65.02699
874.22        65.57336
874.63        66.27475
875.03        66.63737
875.43        66.51201
875.83        66.04752
876.23        65.48387
876.63        65.19196
877.03         65.2742
877.44        65.58875
877.84        65.97409
878.24        66.18466
878.64        66.10136
879.04         65.6712
879.44        65.15846
879.84        65.06268
880.24        65.43207
880.64         66.0695
881.04        66.61491
881.44        66.51054
881.84         65.6595
882.24        64.29231
882.65        62.86435
883.05        62.06736
883.45        62.08595
883.85        62.71944
884.25        63.67524
884.65        64.44153
885.05        64.82327
885.45        64.95358
885.85        64.93956
886.25        64.95041
886.65        65.04384
887.05        65.13945
887.45        65.19377
887.85        65.16642
888.25        65.04998
888.65        64.88281
889.04        64.71541
889.44        64.63765
889.84        64.64754
890.24         64.7091
890.64        64.76151
891.04        64.70634
891.44        64.53041
891.84        64.29726
892.24        64.04043
892.64         63.7979
893.04        63.60865
893.44        63.47713
893.83        63.49699
894.23        63.76882
894.63        64.30303
895.03         65.0144
895.43        65.76582
895.83        66.34272
896.23        66.64497
896.63         66.6935
897.02         66.4686
897.42        65.98724
897.82        65.31261
898.22        64.52129
898.62        63.73093
899.01        63.09474
899.41        62.68743
899.81         62.4716
900.21        62.49248
900.61         62.8026
901.00        63.35566
901.40        64.08926
901.80        64.79181
902.20        65.12894
902.59        65.03896
902.99        64.61469
903.39        64.03236
903.79        63.59991
904.18        63.41644
904.58        63.39511
904.98        63.54464
905.38        63.87853
905.77        64.36395
906.17        65.02885
906.57        65.65572
906.96        65.87037
907.36        65.59158
907.76        64.92676
908.15        64.24169
908.55         64.1166
908.95        64.67456
909.34        65.73109
909.74         66.8641
910.14        67.45412
910.53        67.29859
910.93         66.6348
911.33        65.68462
911.72        64.77427
912.12         64.1143
912.52        63.62828
912.91        63.34898
913.31        63.34977
913.70        63.61406
914.10        64.08787
914.49        64.75199
914.89        65.45939
915.29        66.14279
915.68          66.815
916.08        67.24181
916.47        67.14317
916.87        66.51962
917.26        65.44688
917.66         64.3922
918.05        63.91162
918.45        64.12562
918.84         64.9568
919.24         65.9523
919.64        66.42987
920.03        66.20423
920.42        65.41209
920.82        64.58072
921.21         64.4834
921.61        65.25291
922.00        66.68712
922.40         68.1299
922.79        68.57272
923.19        67.75517
923.58        66.10538
923.98        64.32523
924.37        63.35594
924.77        63.43121
925.16        64.19688
925.55        65.32795
925.95        66.23789
926.34        66.69539
926.74        66.86819
927.13         66.7289
927.52        66.16122
927.92        65.28204
928.31        64.12135
928.70        63.02434
929.10        62.51656
929.49         62.6865
929.89        63.34799
930.28         64.3361
930.67        65.20869
931.07        65.75327
931.46        66.15308
931.85        66.24653
932.24        65.84773
932.64        65.03425
933.03        63.82378
933.42        62.71875
933.82        62.45993
934.21        63.16942
934.60        64.70593
934.99         66.4672
935.39        67.33569
935.78        67.03729
936.17        65.79762
936.56         64.2734
936.96        63.51409
937.35        63.77703
937.74        64.73719
938.13        65.81667
938.53        66.11975
938.92        65.45323
939.31        64.18415
939.70        62.81723
940.09        62.05062
940.49        62.02697
940.88         62.5341
941.27        63.32483
941.66        63.95442
942.05         64.2491
942.44        64.37571
942.84        64.39912
943.23        64.39526
943.62        64.41892
944.01        64.38226
944.40        64.38977
944.79        64.65762
945.18        65.18334
945.57         65.8858
945.97        66.46212
946.36          66.489
946.75        65.84502
947.14        64.75488
947.53        63.50355
947.92        62.48107
948.31        61.82144
948.70        61.43016
949.09        61.34379
949.48        61.61246
949.87        62.19802
950.26        63.07722
950.65        64.03365
951.04            64.7
951.43        64.95064
951.82         64.8211
952.21        64.46595
952.60        64.17622
952.99        64.06507
953.38        64.10426
953.77        64.18406
954.16        64.12896
954.55        63.89676
954.94        63.50517
955.33        63.19441
955.72        63.36206
956.11        64.06416
956.50         65.1852
956.89        66.17705
957.28        66.13189
957.66        64.88904
958.05        62.82862
958.44        60.70066
958.83        59.56941
959.22        59.64846
959.61        60.63285
960.00        62.00152
960.39        62.77528
960.78        62.61696
961.16        61.82932
961.55        60.84592
961.94        60.21342
962.33        60.09517
962.72         60.3315
963.11        60.73183
963.49        61.00134
963.88        60.95524
964.27        60.69455
964.66         60.4911
965.04        60.75376
965.43        61.50369
965.82        62.68385
966.21        63.78363
966.60        63.85054
966.98        62.66783
967.37        60.65551
967.76        58.68322
968.15        57.85242
968.53        58.34977
968.92        59.90651
969.31        61.85674
969.69        62.84193
970.08        62.35679
970.47        60.88428
970.86        59.29294
971.24        58.80556
971.63        59.68742
972.02        61.56747
972.40        63.85621
972.79        65.11874
973.17        64.90517
973.56        63.69876
973.95        62.14082
974.33        61.03626
974.72        60.60385
975.11        60.57333
975.49        60.78811
975.88        60.93628
976.26        60.93206
976.65        60.83909
977.04        60.73833
977.42         60.6793
977.81        60.63616
978.19         60.5716
978.58        60.46597
978.96        60.26544
979.35        59.94578
979.74        59.53781
980.12         59.2327
980.51        59.15257
980.89        59.44583
981.28        60.03674
981.66        60.74492
982.05        61.27611
982.43        61.59612
982.82         61.7435
983.20        62.02169
983.59        62.89575
983.97        64.49352
984.35         66.5563
984.74        68.45306
985.12        69.38784
985.51        69.07964
985.89        67.86136
986.28         66.2461
986.66        64.90916
987.04        64.13521
987.43        63.68784
987.81        63.59939
988.20        63.80679
988.58         64.2402
988.96        64.86032
989.35        65.37966
989.73        65.34961
990.12        64.69337
990.50         63.5596
990.88         62.1544
991.27        60.95428
991.65        60.20286
992.03        59.80634
992.42        59.83197
992.80        60.33142
993.18        61.27745
993.56        62.65657
993.95        64.10252
994.33        65.06852
994.71        65.22782
995.10        64.78765
995.48        64.00568
995.86        63.40273
996.24        63.11763
996.63        62.84636
997.01        62.76638
997.39         62.9022
997.77        63.20097
998.15        63.77845
998.54        64.17416
998.92        63.54477
999.30        61.93117
999.68        59.64418
1000.06        57.61069
1000.45        57.13639
1000.83        58.55908
1001.21        61.59219
1001.59        65.40114
1001.97        67.89543
1002.35        68.19103
1002.73         66.9107
1003.12        65.08058
1003.50        63.94829
1003.88        63.94214
1004.26         64.5326
1004.64         65.6022
1005.02        66.88225
1005.40        68.08232
1005.78        69.43414
1006.16        70.24427
1006.54        69.37887
1006.92        66.87343
1007.30        63.16837
1007.69        59.67583
1008.07        58.25167
1008.45         59.4266
1008.83        62.80798
1009.21        67.28033
1009.59        70.02338
1009.97        69.67606
1010.35        67.03236
1010.73        63.30888
1011.11        60.27183
1011.49        58.48909
1011.86        57.46833
1012.24        56.97338
1012.62        56.68786
1013.00        56.46794
1013.38        56.45445
1013.76        56.72429
1014.14        57.28133
1014.52        58.04427
1014.90         58.8722
1015.28        59.46224
1015.66        59.51579
1016.04        59.01897
1016.41        58.04457
1016.79        56.94607
1017.17        56.44134
1017.55        56.71625
1017.93        57.55445
1018.31        58.53663
1018.69        59.04314
1019.06        58.95507
1019.44        58.46761
1019.82        57.77544
1020.20        57.37797
1020.58        57.44228
1020.95        57.58807
1021.33        57.90685
1021.71        58.45213
1022.09        59.25412
1022.46        60.64278
1022.84        61.89558
1023.22        61.37514
1023.60        58.77669
1023.97        54.58878
1024.35         51.1905
1024.73        51.29202
