SpectraSmart Spectrum 2.9.0.0
--------- Device Information -----------
Spectrum Name :  反射率_0
Saving Time :  2024/04/27 00:33:52
Spectro-Module Model Name : SE2030-DUVN
Spectro-Module Serial Number : OS361AC55029948
Wavelength Start : 200
Wavelength End : 1025
Wavelength Unit : Wavelength(nm)
Spectrum Unit : Reflectance(%)
-----------Spectrum Setting ------------
Integration Time : 20ms
Average : 10
Boxcar : 0
Background removal :  enabled
linearity correction :  enabled
SC :  disabled
Intensity correction :  disabled
DWT denoise :  enabled
savitzky-golay :  disabled
FFT :  disabled
Running average :  disabled
Kalman :  disabled
High pass :  disabled
---------------BEGIN--------------------
Wavelength(nm)             Reflectance(%)
200.29               0
200.75        53.72361
201.21        46.75722
201.67        40.57105
202.13        37.11795
202.58        36.21734
203.04        37.47228
203.50        40.87758
203.96        45.42578
204.42        49.94426
204.88        54.42223
205.34        57.43494
205.80        57.25716
206.26        54.02301
206.72        48.54743
207.18        43.16925
207.64        39.55394
208.10        37.57394
208.55        37.24747
209.01         37.8438
209.47        37.86013
209.93         36.9997
210.39        36.09462
210.85           36.57
211.31        40.14031
211.77        48.50611
212.23        67.23768
212.69        112.1759
213.14        180.6483
213.60        164.9699
214.06        106.7098
214.52         70.5359
214.98        55.02046
215.44        48.85236
215.90        46.15692
216.36        45.56082
216.81        45.83033
217.27        46.88727
217.73        50.38343
218.19        55.81182
218.65        58.03288
219.11        55.38349
219.57        50.55733
220.02        47.98487
220.48        51.09567
220.94        60.05526
221.40        76.13828
221.86        98.56757
222.32        111.8655
222.77        103.4443
223.23        84.28876
223.69        65.96028
224.15        54.54557
224.61        48.82199
225.06         45.9114
225.52        44.75944
225.98        44.22824
226.44        43.94374
226.90        44.18995
227.36        44.78159
227.81        45.26236
228.27        45.57754
228.73        45.58522
229.19        45.52218
229.65        45.78571
230.10        46.34671
230.56        47.05758
231.02        47.51815
231.48        47.14305
231.93        45.87349
232.39        44.26699
232.85        42.66532
233.31        41.53783
233.77        40.92971
234.22        40.69786
234.68        40.70318
235.14        40.87104
235.60        41.15979
236.05        41.69181
236.51        42.27674
236.97        42.48102
237.43        42.21206
237.88        41.58747
238.34        41.12072
238.80        41.97414
239.26        44.62913
239.71        49.42798
240.17        55.90511
240.63        62.19788
241.08        66.88676
241.54        69.55012
242.00        71.18136
242.46        74.73425
242.91        82.75919
243.37        95.66776
243.83        115.7476
244.28         140.098
244.74        156.8438
245.20         160.243
245.66         152.506
246.11        138.7868
246.57        121.8986
247.03        101.2971
247.48        79.15597
247.94        63.03839
248.40        56.36927
248.85        55.77412
249.31        57.61155
249.77        58.60092
250.22        58.11022
250.68        56.57801
251.14        54.96611
251.59        55.95553
252.05          60.401
252.51        66.47397
252.96        70.24813
253.42        69.05691
253.88         63.8761
254.33        56.44076
254.79        50.76597
255.25        49.90112
255.70        53.32964
256.16        59.59823
256.62        65.10539
257.07        64.68088
257.53        59.74042
257.99        53.54959
258.44        48.64305
258.90        47.20741
259.35         48.1353
259.81          50.359
260.27        52.39956
260.72        52.51595
261.18        50.91065
261.63        48.31752
262.09        45.85315
262.55        44.22434
263.00        43.36553
263.46        42.99781
263.91        42.63923
264.37        41.94304
264.83        40.85588
265.28        39.56719
265.74        38.40576
266.19        37.50714
266.65        36.93904
267.11        36.52287
267.56         36.1846
268.02        35.82467
268.47        35.40007
268.93        34.97345
269.38        34.45036
269.84        33.72918
270.30        32.80224
270.75        31.69502
271.21        30.62704
271.66        29.88596
272.12        29.52039
272.57        29.42713
273.03        29.36322
273.48        28.93476
273.94         28.1106
274.39        27.01344
274.85        25.93962
275.31         25.1838
275.76        24.78045
276.22        24.63828
276.67        24.57001
277.13        24.37381
277.58        23.97093
278.04        23.45937
278.49        22.90524
278.95        22.49308
279.40        22.21313
279.86        22.04559
280.31        21.86563
280.77         21.5794
281.22        21.15128
281.68        20.67712
282.13        20.22351
282.59        19.93368
283.04        19.80686
283.50         19.8049
283.95        19.86003
284.41        19.87024
284.86        19.80604
285.32        19.71943
285.77        19.63106
286.22         19.6148
286.68        19.68429
287.13        19.78325
287.59        19.90557
288.04        20.00981
288.50        20.09769
288.95        20.16202
289.41        20.20037
289.86         20.1597
290.32        20.06813
290.77         19.9336
291.22        19.83442
291.68        19.87334
292.13        20.07395
292.59        20.44499
293.04        20.92677
293.50        21.43258
293.95        21.94243
294.40        22.48922
294.86        23.16899
295.31        24.12145
295.77         25.3665
296.22          26.837
296.68        28.40002
297.13         29.8427
297.58        31.12642
298.04        32.31722
298.49         33.5326
298.95        34.97675
299.40        36.67793
299.85        38.55812
300.31        40.51094
300.76        42.36147
301.21        44.07529
301.67        45.73706
302.12        47.37423
302.58        49.09702
303.03        50.89957
303.48        52.76478
303.94        54.71862
304.39        56.75225
304.84        58.87135
305.30        61.07658
305.75         63.2677
306.20        65.36743
306.66        67.36301
307.11        69.23952
307.57        71.04068
308.02         72.7452
308.47         74.3819
308.93         75.9495
309.38        77.47028
309.83        79.08912
310.29        80.82519
310.74        82.63498
311.19        84.36533
311.65          85.733
312.10        86.65914
312.55         87.2252
313.00        87.65318
313.46        88.29793
313.91        89.22402
314.36        90.35909
314.82        91.51659
315.27        92.40076
315.72         92.9166
316.18        93.19139
316.63        93.35788
317.08        93.66573
317.53        94.18794
317.99        94.83539
318.44        95.53209
318.89        96.12907
319.35        96.57067
319.80        96.90445
320.25        97.17673
320.70        97.46079
321.16        97.77779
321.61        98.14057
322.06        98.49223
322.51         98.7542
322.97        98.90135
323.42        98.96524
323.87        99.06887
324.32         99.4305
324.78        100.0502
325.23        100.9313
325.68        101.7862
326.13        102.1455
326.59        101.9052
327.04        101.2369
327.49        100.4893
327.94        100.2468
328.39        100.6533
328.85        101.5046
329.30        102.6122
329.75        103.3862
330.20        103.6295
330.66         103.491
331.11        103.2214
331.56        103.1499
332.01        103.3943
332.46         103.822
332.92        104.2994
333.37        104.7695
333.82        105.1302
334.27         105.469
334.72          105.78
335.17        106.0262
335.63         106.215
336.08        106.4001
336.53        106.6916
336.98        107.3258
337.43        108.3305
337.88        109.5997
338.34        110.9208
338.79        112.0466
339.24        112.8151
339.69        113.3027
340.14        113.5123
340.59        113.4762
341.05        113.2915
341.50        112.9641
341.95        112.7068
342.40        112.8449
342.85        113.4354
343.30        114.3844
343.75          115.48
344.20        116.3458
344.66        116.8637
345.11        117.1358
345.56        117.2312
346.01        117.2783
346.46        117.3562
346.91        117.4373
347.36        117.5937
347.81        117.9526
348.26        118.5124
348.72        119.2173
349.17        119.9629
349.62        120.6115
350.07        121.1001
350.52        121.4703
350.97        121.6308
351.42        121.4534
351.87        120.9613
352.32        120.2118
352.77        119.4777
353.22        119.1563
353.67        119.3121
354.13        119.8318
354.58        120.4381
355.03        120.6143
355.48        120.2262
355.93        119.4261
356.38         118.511
356.83        117.9287
357.28        117.7727
357.73        117.8849
358.18        118.0144
358.63        117.7709
359.08        117.0559
359.53        116.0084
359.98        114.8442
360.43        113.8628
360.88        113.1358
361.33        112.5784
361.78        112.0299
362.23        111.2463
362.68        110.1949
363.13        108.9824
363.58        107.8044
364.03        106.9442
364.48         106.446
364.93         106.194
365.38        106.0018
365.83        105.5775
366.28        104.8448
366.73        103.9087
367.18        102.8777
367.63         101.918
368.08        101.0899
368.53        100.3412
368.98        99.67271
369.43         99.0858
369.88        98.56686
370.33        98.12778
370.78        97.71187
371.23         97.2204
371.68        96.62814
372.13        95.94095
372.58        95.23126
373.03        94.62473
373.48        94.13584
373.93        93.71622
374.38        93.25991
374.83        92.60471
375.28        91.72849
375.72        90.68837
376.17        89.65177
376.62        88.75153
377.07        88.04604
377.52         87.5207
377.97        87.12872
378.42        86.80387
378.87        86.51321
379.32        86.22903
379.77        86.02324
380.22        86.00377
380.67        86.14706
381.11        86.42983
381.56        86.53311
382.01         86.0376
382.46        84.92117
382.91        83.40435
383.36        81.91608
383.81        81.03495
384.26        80.84946
384.71        81.16272
385.15        81.70796
385.60         82.0085
386.05         81.9075
386.50        81.54577
386.95        80.99732
387.40        80.38642
387.85        79.78794
388.29        79.11471
388.74        78.54101
389.19        78.11212
389.64        77.83091
390.09        77.68871
390.54        77.59776
390.98        77.38232
391.43          77.041
391.88        76.60813
392.33        76.18848
392.78        75.86807
393.23        75.65163
393.67        75.64673
394.12        75.78465
394.57        75.39338
395.02        74.64249
395.47        74.54243
395.91         75.0104
396.36        74.99471
396.81        74.47585
397.26        74.06599
397.71        73.80592
398.15        73.51811
398.60        73.30738
399.05        73.00983
399.50        72.70023
399.95        72.82746
400.39        73.24287
400.84        73.07153
401.29        72.36688
401.74        71.95391
402.18         71.8942
402.63        71.68946
403.08        71.37614
403.53        71.20459
403.97        71.17483
404.42        71.22747
404.87        71.28159
405.32        71.18215
405.76        70.89693
406.21        70.56903
406.66        70.27393
407.11        70.02714
407.55        69.95172
408.00        70.20026
408.45         70.6647
408.90         71.0308
409.34        71.09496
409.79        70.63427
410.24        69.87044
410.68        69.43732
411.13        69.41965
411.58        69.48238
412.03        69.51944
412.47        69.49918
412.92        69.35834
413.37        69.14738
413.81        68.92019
414.26        68.81566
414.71        68.83286
415.15        68.95606
415.60        69.10815
416.05        69.23877
416.49         69.3285
416.94        69.38266
417.39        69.42444
417.83        69.47787
418.28        69.55112
418.73        69.62138
419.17        69.68919
419.62        69.76357
420.07        69.84049
420.51        69.90314
420.96        69.94718
421.41        69.93473
421.85        69.84891
422.30        69.70087
422.74        69.48654
423.19        69.48367
423.64        69.58783
424.08        69.38055
424.53        68.95435
424.98        68.85092
425.42        69.11718
425.87        69.60662
426.31        70.11028
426.76        69.97736
427.21         69.3467
427.65        69.22652
428.10        69.61815
428.54        69.75957
428.99        69.68209
429.44         69.6731
429.88        69.79892
430.33        70.21436
430.77        70.72126
431.22        71.03745
431.66         71.0507
432.11        70.70783
432.56        70.21633
433.00        70.03465
433.45        70.33601
433.89         71.0573
434.34        71.67883
434.78        72.25259
435.23        71.61131
435.67         69.8157
436.12        70.40617
436.57         70.4591
437.01        70.86289
437.46        71.04988
437.90         71.0635
438.35         70.3734
438.79        70.72835
439.24        70.77547
439.68        70.96786
440.13        71.21324
440.57        71.53078
441.02        71.74747
441.46        71.83464
441.91        72.38815
442.35        73.07552
442.80        72.83971
443.24         71.9217
443.69        71.96021
444.13        72.86047
444.58         73.2494
445.02        73.04275
445.47        73.01316
445.91        73.22772
446.36        73.36172
446.80        73.36849
447.24        73.90199
447.69        73.86195
448.13        73.98698
448.58        73.99232
449.02        74.02687
449.47         74.0746
449.91        73.98617
450.36        73.80527
450.80        73.59399
451.25        73.45226
451.69         73.4397
452.13        73.58234
452.58        73.83468
453.02        74.12416
453.47        74.34219
453.91        74.44101
454.36        74.45873
454.80        74.36449
455.24        74.09403
455.69        73.67914
456.13        73.18019
456.58        72.76606
457.02        72.38483
457.46        72.18987
457.91        72.57425
458.35        73.21145
458.79         73.2542
459.24        72.68705
459.68        71.81594
460.13        71.01251
460.57        70.70763
461.01        71.05507
461.46        71.33624
461.90        72.26209
462.34         72.7699
462.79        72.51822
463.23        72.49785
463.68        72.52714
464.12        72.29678
464.56        71.81349
465.01        71.25907
465.45        70.69478
465.89        70.49915
466.34        70.59153
466.78        70.53775
467.22        70.35145
467.67        70.13936
468.11        70.45782
468.55         70.5872
468.99        70.62508
469.44        70.58134
469.88        70.45821
470.32        70.24604
470.77        69.99596
471.21        69.81732
471.65        69.72538
472.10        69.69194
472.54         69.7056
472.98        69.71484
473.42        69.68765
473.87        69.79517
474.31         69.9117
474.75        69.57095
475.20        68.94946
475.64        68.82616
476.08        69.18396
476.52        69.18034
476.97        68.76296
477.41        68.65897
477.85        69.04256
478.29        68.31042
478.74         69.1667
479.18        69.32639
479.62        69.47752
480.06        69.47657
480.50        69.25097
480.95        69.14651
481.39        69.27422
481.83        68.32088
482.27        68.48214
482.72        68.99715
483.16        68.79285
483.60        68.78256
484.04        68.81518
484.48        69.06711
484.93        69.60553
485.37        68.61248
485.81        68.38355
486.25        68.53217
486.69        69.85936
487.14        70.31432
487.58        68.73843
488.02         69.0536
488.46        67.94124
488.90        67.65615
489.34        68.98985
489.79        69.82993
490.23        69.23689
490.67        68.62458
491.11        67.95024
491.55        67.80017
491.99        68.10851
492.43        68.06857
492.88        67.68468
493.32        67.60574
493.76        67.82111
494.20        67.94013
494.64        67.92443
495.08        67.87394
495.52        67.81021
495.96        67.77858
496.41        67.77628
496.85        67.78783
497.29        67.68864
497.73        67.68234
498.17        67.00329
498.61        66.96695
499.05        67.30173
499.49        67.69183
499.93        67.68952
500.37        67.78368
500.82         67.8981
501.26        67.65427
501.70        67.44739
502.14        67.75523
502.58        67.82633
503.02        67.98659
503.46        67.97375
503.90        68.02062
504.34        68.08157
504.78        67.99895
505.22        67.77712
505.66        67.46356
506.10        67.16411
506.54        67.03957
506.98        67.12043
507.42        67.35395
507.86        67.62935
508.30        67.76492
508.74        67.71079
509.18        67.52092
509.62        67.27597
510.06        67.10901
510.50        67.06052
510.94        67.08723
511.38        67.15129
511.82        67.19296
512.26        67.19429
512.70        67.18553
513.14        67.17781
513.58         67.1824
514.02        67.20531
514.46        67.23234
514.90        67.27364
515.34        67.35239
515.78        67.46223
516.22        67.58717
516.66        67.68877
517.10        67.70612
517.54        67.62818
517.98        67.48063
518.42        67.29404
518.86        67.11777
519.30         66.9764
519.74        66.86361
520.18        66.79458
520.62        66.78754
521.06        66.84239
521.50        66.95868
521.93        67.10711
522.37         67.2139
522.81        67.26876
523.25        67.27998
523.69        67.27869
524.13        67.32341
524.57        67.41689
525.01        67.52161
525.45        67.60457
525.89        67.61443
526.32        67.53426
526.76        67.41662
527.20        67.24876
527.64        67.02518
528.08        66.76834
528.52        66.45618
528.96        66.19451
529.40        66.21634
529.83        66.49941
530.27        66.83636
530.71        67.10127
531.15        67.23736
531.59        67.20084
532.03        66.96061
532.46        66.61767
532.90        66.42554
533.34        66.42567
533.78        66.50481
534.22        66.59502
534.66        66.67554
535.09        66.67001
535.53        66.46727
535.97        66.13323
536.41        65.93709
536.85        65.91448
537.28         65.9274
537.72        65.97153
538.16         66.0935
538.60        66.27535
539.04        66.49915
539.47        66.69657
539.91        66.80534
540.35         66.7973
540.79        66.69475
541.22        66.54639
541.66        66.45677
542.10         66.4441
542.54        66.47986
542.97        66.52122
543.41        66.52995
543.85        66.48589
544.29        66.42096
544.72        66.33607
545.16        66.26834
545.60        66.21644
546.04        66.17632
546.47        66.17467
546.91        66.24948
547.35        66.39331
547.79        66.58999
548.22        66.77905
548.66         66.8499
549.10        66.85858
549.53        66.80716
549.97        66.73051
550.41        66.53957
550.84        66.31919
551.28        66.26555
551.72         66.3475
552.15         66.4647
552.59        66.63977
553.03        66.36527
553.46        66.77038
553.90        66.73558
554.34        66.57198
554.77        66.59743
555.21        66.35503
555.65        66.33513
556.08        66.42016
556.52        66.52363
556.96        66.60355
557.39        66.71433
557.83        66.78493
558.27        66.64124
558.70         66.0648
559.14        65.86627
559.57        65.94794
560.01        65.92477
560.45        65.82227
560.88        65.95348
561.32        66.28979
561.75        66.57481
562.19        66.75783
562.63        66.70951
563.06        66.46077
563.50        66.52618
563.93        66.37318
564.37        66.37811
564.80        66.40049
565.24         66.2695
565.68        65.88267
566.11        66.57447
566.55          65.961
566.98        65.93113
567.42        65.88026
567.85        65.99392
568.29        66.26089
568.72        66.55016
569.16        66.89613
569.60        67.02032
570.03         67.1358
570.47        67.28688
570.90         67.5991
571.34        66.98978
571.77        67.32993
572.21        67.55618
572.64        67.54758
573.08        67.40393
573.51        67.02331
573.95          67.112
574.38        67.82777
574.82         67.5405
575.25        66.90279
575.69        67.41167
576.12        67.53345
576.56        66.66718
576.99        66.82196
577.42        67.23549
577.86        67.15134
578.29        68.23584
578.73        67.89716
579.16        67.77254
579.60        67.25584
580.03        67.29293
580.47        66.95507
580.90        67.92563
581.33         67.8932
581.77        67.81376
582.20        68.04694
582.64        68.15157
583.07        67.65744
583.51        67.23166
583.94        67.07176
584.37        67.33521
584.81        67.88812
585.24        67.98788
585.68        67.58722
586.11        67.54192
586.54        67.51069
586.98        66.80585
587.41        66.43855
587.85        67.07122
588.28        66.77293
588.71        66.85603
589.15        66.53559
589.58        67.01425
590.01         66.4398
590.45        66.77455
590.88        67.33155
591.31        67.26338
591.75        66.67906
592.18        66.28721
592.61        66.28219
593.05        67.09619
593.48        67.68546
593.91        67.81799
594.35        67.06851
594.78        66.51037
595.21        66.26554
595.65        66.75525
596.08        67.88651
596.51        67.82203
596.94        67.20164
597.38         66.7633
597.81        66.63849
598.24        67.75912
598.68        67.17176
599.11         66.5265
599.54        68.08723
599.97        67.41485
600.41        67.15891
600.84        66.54568
601.27        67.10809
601.70        66.80633
602.14        67.16138
602.57         66.8874
603.00        66.53752
603.43        66.30566
603.87        67.10135
604.30        67.25761
604.73        67.07178
605.16        66.70016
605.60         66.4366
606.03        66.14251
606.46        65.98376
606.89        65.92491
607.32        66.63543
607.76        66.55273
608.19        66.66248
608.62        66.43086
609.05        66.24274
609.48        66.25894
609.92        67.34845
610.35        66.73388
610.78        66.30409
611.21        66.22229
611.64        66.35821
612.07        66.65456
612.50         66.5551
612.94         66.5004
613.37        66.29887
613.80         66.5379
614.23        65.68465
614.66        65.71434
615.09        66.10326
615.52        66.31902
615.96        66.27155
616.39        66.29854
616.82        66.41857
617.25        66.22326
617.68        65.96957
618.11        66.06854
618.54        66.49864
618.97        66.55791
619.40        66.22547
619.84        66.29414
620.27        66.16714
620.70        66.20419
621.13        66.16682
621.56        65.78871
621.99        65.16339
622.42        65.09639
622.85        65.30893
623.28        65.33734
623.71        65.01412
624.14        65.69569
624.57        65.94435
625.00        65.72063
625.43        66.02429
625.86        65.87888
626.29        65.77374
626.72        65.45995
627.15        65.65274
627.58        65.64008
628.01        65.51265
628.44        65.80763
628.87        65.62588
629.30        65.39452
629.73        65.29253
630.16        65.44439
630.59        65.36993
631.02        65.47667
631.45         65.6526
631.88        65.78046
632.31        65.85612
632.74        65.89816
633.17        65.89532
633.60         65.8151
634.03         65.6641
634.46        65.45024
634.89        65.22045
635.32        65.06789
635.75        65.01952
636.18        64.98483
636.61        64.96279
637.04         64.9886
637.47        65.05206
637.89        65.13602
638.32        65.19206
638.75        65.20501
639.18        65.16848
639.61        65.08528
640.04        64.99392
640.47        64.95942
640.90         64.9968
641.33        65.09165
641.76        65.20459
642.18        65.27623
642.61         65.2683
643.04        65.20523
643.47        65.12724
643.90        65.09947
644.33         65.1347
644.76        65.21243
645.18        65.28538
645.61        65.25985
646.04        65.12824
646.47        64.92979
646.90        64.73218
647.33        64.62675
647.75        64.61522
648.18         64.7397
648.61        64.98153
649.04        65.05093
649.47        64.86848
649.89        65.49647
650.32        65.19441
650.75        65.23041
651.18        65.12184
651.61        65.16053
652.03        65.36732
652.46        65.34879
652.89         65.0629
653.32        65.34405
653.74        65.54659
654.17        64.96576
654.60        65.00292
655.03        65.38113
655.46        64.63737
655.88        64.59003
656.31        68.35869
656.74        70.87122
657.16         69.5255
657.59        68.13596
658.02        66.03913
658.45        66.59288
658.87        65.73413
659.30        65.47542
659.73        65.02304
660.15        66.22459
660.58        65.07587
661.01         65.1176
661.44        65.15178
661.86        64.81471
662.29         64.1516
662.72        64.54366
663.14        64.70544
663.57        64.73125
664.00        64.35546
664.42        64.40022
664.85        64.88084
665.27        65.35017
665.70        65.64535
666.13        65.77064
666.55        65.69587
666.98         65.3521
667.41        64.84428
667.83        64.77244
668.26        64.51503
668.69        64.56816
669.11        64.69604
669.54        64.81252
669.96        64.88435
670.39        65.00345
670.82        65.15121
671.24        65.10343
671.67        64.92849
672.09        64.97471
672.52        65.21854
672.94        65.28955
673.37        65.17954
673.80        65.08506
674.22        65.05077
674.65        65.01811
675.07        65.01221
675.50        65.04004
675.92        65.06591
676.35        65.01842
676.77        64.89115
677.20        64.70209
677.62        64.52325
678.05         64.4709
678.47        64.56235
678.90        64.76134
679.32        64.97858
679.75        65.08567
680.17        65.04675
680.60        64.90703
681.02        64.73648
681.45         64.6441
681.87        64.67451
682.30        64.77549
682.72        64.92022
683.15        65.04544
683.57        65.13085
684.00        65.13741
684.42        65.11014
684.85        65.16903
685.27        65.31411
685.70        65.49277
686.12        65.63443
686.54        65.66548
686.97        65.56615
687.39        65.37382
687.82        65.14043
688.24        64.96861
688.66         64.8884
689.09        64.87427
689.51        64.91778
689.94         64.9705
690.36        65.02242
690.78         65.0715
691.21        65.12704
691.63        65.19596
692.06        65.27778
692.48        65.36919
692.90        65.43149
693.33        65.41433
693.75        65.31577
694.17        65.12885
694.60        64.93858
695.02        64.92128
695.44         65.0831
695.87        65.29372
696.29        65.47739
696.71        65.52275
697.14        65.41914
697.56        65.21638
697.98        65.02779
698.41        64.98734
698.83        65.10765
699.25        65.39327
699.68        65.68984
700.10        65.78799
700.52        65.61861
700.94        65.26434
701.37        64.88565
701.79         64.7456
702.21        64.89814
702.64        65.24538
703.06        65.65938
703.48        65.91204
703.90        65.93487
704.33        65.80228
704.75        65.58644
705.17        65.39231
705.59        65.27127
706.01        65.19253
706.44         65.1645
706.86        65.23163
707.28        65.37991
707.70        65.57195
708.12        65.78489
708.55         66.0145
708.97         66.2401
709.39        66.26707
709.81         66.1264
710.23        66.03633
710.66        66.02141
711.08        65.97894
711.50        65.89061
711.92        65.79836
712.34        65.70869
712.76        65.62886
713.19         65.5595
713.61        65.53379
714.03        65.54529
714.45        65.59295
714.87        65.68729
715.29        65.84602
715.71         66.0574
716.13        66.29293
716.56        66.49561
716.98        66.66242
717.40        66.74072
717.82        66.74247
718.24        66.65015
718.66          66.439
719.08        66.13675
719.50         65.7825
719.92        65.46734
720.34        65.32378
720.76        65.37713
721.19        65.56554
721.61        65.85822
722.03        66.14751
722.45        66.37753
722.87        66.56116
723.29        66.65048
723.71        66.57568
724.13         66.3449
724.55        65.99112
724.97        65.61758
725.39        65.40448
725.81        65.40199
726.23        65.54155
726.65        65.76313
727.07        66.10803
727.49        66.29636
727.91        66.54003
728.33        66.75026
728.75        66.90688
729.17        66.99976
729.59         67.0114
730.01        66.96027
730.43        66.93198
730.85        66.94897
731.27        66.91311
731.69        66.77367
732.10        66.89477
732.52        66.55359
732.94         66.3672
733.36        66.19353
733.78        66.03793
734.20        65.90376
734.62        66.03001
735.04        66.46313
735.46        66.01949
735.88        66.64105
736.30        66.74802
736.72        66.91518
737.13        67.09303
737.55         67.2321
737.97        67.39835
738.39        67.50713
738.81        67.33772
739.23        66.95753
739.65        66.76884
740.06        66.79911
740.48        66.83034
740.90        66.84184
741.32        67.00917
741.74        67.28897
742.16        67.49058
742.57        67.57597
742.99         67.5821
743.41        67.52026
743.83        67.39217
744.25        67.21556
744.67        66.98011
745.08        66.77189
745.50        66.70942
745.92        66.82059
746.34        67.06744
746.75        67.33729
747.17        67.42864
747.59        67.30846
748.01        67.04356
748.42        66.73731
748.84        66.58503
749.26        66.63927
749.68        66.75023
750.09        66.87806
750.51        67.15785
750.93        67.45894
751.35        67.38228
751.76        66.99001
752.18        66.74941
752.60        66.67835
753.01        66.58804
753.43        66.48358
753.85        66.33863
754.27        66.13128
754.68         66.5974
755.10        66.43409
755.52        66.63422
755.93        66.78439
756.35        66.90742
756.77        67.06644
757.18          67.205
757.60        67.31406
758.02        67.74041
758.43        68.37556
758.85        67.49916
759.26         67.5364
759.68        66.87909
760.10        67.01664
760.51        67.14317
760.93        67.35313
761.34        67.26603
761.76        66.95586
762.18         66.9732
762.59        67.35736
763.01         67.6685
763.42        67.85862
763.84        67.96867
764.26        67.99223
764.67        67.79876
765.09        67.51694
765.50        67.38498
765.92        67.41341
766.33        67.27832
766.75        66.94269
767.16        66.79508
767.58        66.82521
768.00        66.77648
768.41        66.70536
768.83        66.94907
769.24        67.39739
769.66        67.55043
770.07        67.40844
770.49        67.30961
770.90        67.33613
771.32        67.55833
771.73        67.89704
772.15        67.98965
772.56         67.8286
772.97        67.59786
773.39        67.41678
773.80         67.4105
774.22        67.58875
774.63        67.95932
775.05         68.3383
775.46         68.4976
775.88        68.34987
776.29        67.99744
776.70        67.58693
777.12        67.37906
777.53        67.45185
777.95        67.68437
778.36        67.99194
778.77        68.19003
779.19         68.2428
779.60        68.23729
780.02        68.16479
780.43        68.10336
780.84        68.10538
781.26        67.80527
781.67        67.40211
782.09        67.97104
782.50        69.21257
782.91        69.23838
783.33        68.39954
783.74        68.02594
784.15        68.27039
784.57        68.19303
784.98        67.86225
785.39        67.80489
785.81        68.05103
786.22        68.48866
786.63        68.96448
787.04        69.19695
787.46        69.14098
787.87        68.88573
788.28        68.57006
788.70        68.37228
789.11        68.32159
789.52        68.38789
789.93         68.5051
790.35        68.55649
790.76        68.51942
791.17        68.42683
791.58        68.32751
792.00        68.23766
792.41        68.18369
792.82        68.25924
793.23        68.41063
793.65        68.27405
794.06        67.97927
794.47        68.19242
794.88        68.78367
795.29        69.02123
795.71        68.83578
796.12        68.65131
796.53        68.56071
796.94        68.55427
797.35        68.66488
797.76        68.89153
798.18        69.13632
798.59        69.28889
799.00         69.2921
799.41        69.18278
799.82        69.01875
800.23        68.90157
800.64        68.85963
801.06        68.82935
801.47        68.83295
801.88         68.8185
802.29        68.77016
802.70        68.70918
803.11        68.63689
803.52        68.54757
803.93         68.4677
804.34        68.41255
804.75        68.40952
805.17        68.57082
805.58        68.94741
805.99        69.22244
806.40         69.4001
806.81        70.09485
807.22        70.98898
807.63        70.70601
808.04        69.45629
808.45        68.80346
808.86        68.89743
809.27        68.91612
809.68          68.771
810.09        68.70826
810.50        68.71262
810.91        68.72386
811.32        68.81195
811.73        69.08198
812.14        69.53002
812.55        70.10725
812.96        70.64567
813.37        70.83592
813.78        70.59947
814.19        70.05843
814.60        69.39011
815.01        68.82905
815.42        68.44151
815.83         68.1673
816.24        68.01496
816.65        67.99619
817.05        68.10725
817.46        68.33215
817.87        68.60287
818.28         68.7544
818.69        68.75242
819.10        68.61443
819.51        68.45455
819.92        68.49455
820.33        68.78127
820.74        69.23185
821.14        69.70205
821.55        69.95826
821.96        69.94469
822.37        69.74063
822.78        69.44428
823.19        69.22186
823.60         69.1363
824.00        69.15908
824.41        69.22428
824.82        69.32812
825.23        69.44135
825.64        69.57771
826.04        69.70088
826.45        69.70234
826.86        69.58437
827.27        69.38513
827.68        69.15923
828.08        69.03457
828.49        68.99641
828.90        69.01546
829.31        69.11577
829.72        69.33532
830.12        69.67896
830.53        70.08275
830.94        70.38798
831.35        70.27896
831.75        69.72471
832.16        68.81361
832.57        67.86031
832.97        67.34135
833.38        67.37686
833.79        67.81382
834.20        68.44845
834.60        68.94804
835.01        69.20476
835.42        69.34724
835.82        69.41837
836.23        69.41299
836.64        69.38691
837.04        69.28887
837.45        69.24191
837.86        69.52842
838.26        70.20139
838.67        71.13751
839.08        72.03609
839.48          72.305
839.89        71.79965
840.29        70.74508
840.70        69.61626
841.11        68.92274
841.51        68.81064
841.92        69.09998
842.33        69.66537
842.73        70.28358
843.14        70.73454
843.54        71.13094
843.95         71.4184
844.35        71.56918
844.76        71.56525
845.17        71.38933
845.57        71.10379
845.98        70.80457
846.38         70.5564
846.79        70.34793
847.19         70.1802
847.60        70.01762
848.00        69.86533
848.41        69.71862
848.81        69.62462
849.22        69.56857
849.62        69.59172
850.03        69.68365
850.43        69.82043
850.84        69.89874
851.24        69.94444
851.65        69.90961
852.05        69.96696
852.46        70.30058
852.86        70.90788
853.27        71.67474
853.67        72.30211
854.07        72.50876
854.48        72.22572
854.88        71.58231
855.29        70.70399
855.69        69.96732
856.10        69.46101
856.50        69.19181
856.90        69.09541
857.31        69.06554
857.71        69.10832
858.12         69.1954
858.52        69.36575
858.92         69.5538
859.33        69.71141
859.73        69.86955
860.13        69.92847
860.54        69.77019
860.94        69.43397
861.34         68.9501
861.75        68.47959
862.15        68.32983
862.55          68.546
862.96        69.00519
863.36        69.58747
863.76        69.98788
864.17          70.089
864.57        70.00704
864.97        69.73663
865.38        69.28642
865.78        68.72594
866.18        68.04128
866.58        67.41213
866.99        67.16286
867.39        67.38846
867.79        67.99735
868.19        68.74273
868.60         69.2063
869.00        69.31064
869.40        69.13099
869.80        68.83079
870.21        68.73422
870.61        68.99677
871.01        69.44342
871.41        69.86604
871.81        69.98799
872.22        69.74901
872.62        69.23612
873.02        68.64549
873.42        68.29578
873.82        68.28065
874.22        68.51183
874.63        68.77755
875.03        68.75969
875.43        68.38168
875.83        67.76706
876.23        67.14701
876.63         66.8681
877.03        67.01144
877.44        67.43588
877.84        67.96729
878.24        68.32049
878.64        68.35265
879.04        68.01836
879.44        67.53363
879.84        67.32864
880.24        67.45786
880.64        67.75271
881.04        67.96716
881.44        67.73408
881.84        67.00185
882.24        65.94961
882.65        64.90195
883.05        64.33775
883.45        64.38683
883.85        64.90544
884.25        65.69832
884.65        66.42181
885.05        66.92286
885.45        67.26662
885.85        67.47974
886.25        67.61797
886.65        67.70919
887.05        67.71658
887.45        67.63887
887.85        67.49931
888.25        67.32095
888.65         67.1319
889.04        66.97402
889.44        66.92309
889.84        66.97564
890.24        67.10522
890.64        67.26516
891.04        67.37631
891.44        67.41018
891.84        67.39343
892.24        67.32413
892.64        67.19688
893.04        67.03657
893.44        66.86613
893.83        66.76807
894.23        66.82289
894.63        67.06496
895.03         67.4402
895.43         67.8953
895.83         68.3473
896.23        68.72433
896.63        68.99982
897.02        69.09299
897.42         68.9122
897.82         68.4699
898.22        67.86595
898.62        67.17693
899.01        66.50232
899.41        65.92558
899.81        65.41788
900.21        65.13734
900.61        65.32628
901.00        65.97942
901.40        66.99059
901.80        68.00896
902.20        68.46653
902.59        68.24761
902.99        67.51315
903.39        66.57993
903.79        65.98775
904.18        65.89069
904.58        66.11885
904.98        66.55116
905.38        67.01051
905.77        67.41368
906.17        67.84669
906.57         68.1797
906.96        68.18167
907.36        67.82038
907.76        67.17066
908.15        66.52957
908.55        66.36642
908.95        66.78381
909.34        67.63977
909.74         68.6067
910.14        69.21889
910.53        69.29692
910.93        69.00455
911.33        68.43869
911.72        67.74014
912.12        67.07123
912.52         66.4117
912.91        65.86395
913.31         65.6088
913.70        65.66869
914.10        65.96683
914.49        66.47709
914.89         67.0387
915.29        67.58813
915.68        68.16169
916.08        68.54721
916.47        68.48692
916.87        67.97746
917.26        67.06927
917.66        66.18914
918.05        65.84586
918.45        66.13996
918.84        66.98885
919.24        67.95667
919.64        68.39358
920.03         68.1357
920.42        67.34399
920.82        66.49889
921.21        66.29596
921.61        66.86616
922.00        68.01719
922.40        69.26357
922.79        69.89112
923.19         69.6603
923.58        68.86639
923.98        67.88921
924.37        67.20645
924.77        66.97796
925.16        67.00009
925.55        67.21944
925.95        67.53338
926.34        67.87229
926.74        68.25549
927.13        68.51122
927.52        68.28291
927.92        67.59348
928.31        66.55888
928.70        65.50626
929.10        64.91904
929.49        64.89855
929.89        65.24914
930.28        65.90974
930.67        66.63943
931.07        67.27898
931.46        67.96841
931.85        68.43172
932.24        68.27731
932.64        67.52622
933.03        66.26067
933.42        65.05927
933.82        64.77932
934.21         65.5795
934.60        67.27638
934.99        69.24183
935.39        70.31758
935.78        70.19743
936.17        69.10045
936.56        67.67313
936.96         66.9472
937.35        67.18029
937.74        68.06472
938.13        68.99956
938.53         69.0608
938.92        68.07694
939.31        66.44048
939.70        64.77303
940.09        63.93761
940.49        64.09863
940.88        65.00637
941.27        66.25901
941.66        67.12496
942.05        67.34891
942.44        67.17503
942.84         66.8421
943.23        66.71318
943.62        66.90952
944.01        67.24203
944.40        67.67768
944.79        68.21027
945.18        68.76892
945.57        69.35271
945.97        69.71647
946.36        69.54002
946.75        68.75169
947.14        67.53969
947.53        66.22063
947.92        65.23315
948.31        64.71069
948.70        64.56303
949.09        64.73836
949.48        65.12612
949.87        65.64385
950.26        66.28831
950.65        66.97368
951.04        67.56151
951.43        67.97551
951.82        68.18777
952.21        68.16624
952.60        67.90163
952.99        67.45252
953.38        66.89957
953.77        66.35682
954.16        65.98911
954.55        65.84616
954.94        65.86557
955.33         66.1021
955.72        66.62261
956.11        67.37516
956.50         68.3215
956.89            69.1
957.28        69.12151
957.66          68.281
958.05          66.818
958.44        65.25259
958.83        64.33668
959.22        64.22901
959.61        64.73972
960.00         65.5207
960.39        65.91333
960.78        65.70254
961.16        65.09174
961.55        64.41384
961.94        64.06844
962.33        64.17217
962.72        64.62088
963.11          65.212
963.49         65.6118
963.88        65.61653
964.27        65.31248
964.66        65.02354
965.04        65.26004
965.43         66.0559
965.82         67.3256
966.21        68.49635
966.60        68.49298
966.98        67.07581
967.37        64.74297
967.76        62.41774
968.15        61.24509
968.53        61.42017
968.92        62.64344
969.31         64.2976
969.69        65.14244
970.08        64.68662
970.47        63.36096
970.86        61.90705
971.24        61.35636
971.63        61.93301
972.02        63.32885
972.40        65.02029
972.79        65.74046
973.17        65.16968
973.56        63.77292
973.95        62.23663
974.33        61.42694
974.72        61.53996
975.11        62.27634
975.49        63.35348
975.88        64.16496
976.26        64.50407
976.65        64.51173
977.04        64.31683
977.42        64.07435
977.81         63.8352
978.19        63.52995
978.58         63.3163
978.96        63.43219
979.35        63.88679
979.74         64.6422
980.12        65.55343
980.51        66.10236
980.89        66.24888
981.28        66.08167
981.66        65.78126
982.05        65.59241
982.43        65.60694
982.82        65.73282
983.20        66.05987
983.59         66.6428
983.97        67.53168
984.35        68.66658
984.74        69.71161
985.12        70.33615
985.51        70.36899
985.89         69.9237
986.28        69.31184
986.66        68.94018
987.04        68.98505
987.43        69.29707
987.81        69.74031
988.20        69.91958
988.58        69.73978
988.96        69.25105
989.35        68.63312
989.73        68.11787
990.12        67.73812
990.50        67.46126
990.88        67.06603
991.27        66.22304
991.65        64.95229
992.03        63.45749
992.42        62.17582
992.80        61.63382
993.18        61.93949
993.56        62.94377
993.95        64.22729
994.33         65.1694
994.71        65.39577
995.10        65.13961
995.48        64.66179
995.86        64.47748
996.24        64.71719
996.63        65.06461
997.01        65.53609
997.39        65.84963
997.77        65.86739
998.15        65.79675
998.54        65.51521
998.92        64.67249
999.30        63.39923
999.68        61.86874
1000.06         60.7014
1000.45        60.74927
1000.83        62.25518
1001.21          65.047
1001.59        68.53918
1001.97        71.15687
1002.35        72.14884
1002.73         71.8848
1003.12        71.03648
1003.50        70.41783
1003.88        70.38169
1004.26        70.53837
1004.64        70.90698
1005.02        71.51976
1005.40        72.27574
1005.78        73.35521
1006.16        74.10319
1006.54        73.42461
1006.92        71.31281
1007.30         68.1889
1007.69        65.33745
1008.07        64.41909
1008.45        65.93589
1008.83        69.54417
1009.21        74.14553
1009.59        76.98457
1009.97        76.71214
1010.35        74.04935
1010.73        70.32109
1011.11        67.44585
1011.49        66.00801
1011.86        65.51704
1012.24        65.51297
1012.62        65.34038
1013.00        64.80734
1013.38        64.04904
1013.76        63.55759
1014.14        64.27346
1014.52        66.37738
1014.90        69.39863
1015.28        72.01369
1015.66        72.55749
1016.04        70.81395
1016.41         67.2266
1016.79        63.09656
1017.17        60.94194
1017.55        61.48783
1017.93        63.95303
1018.31        66.91142
1018.69        68.31371
1019.06        67.68227
1019.44        65.52164
1019.82        62.64733
1020.20        61.03356
1020.58        61.46302
1020.95        63.00076
1021.33        64.85526
1021.71        66.06668
1022.09        66.48045
1022.46        66.66344
1022.84        66.32861
1023.22        65.00651
1023.60        62.86134
1023.97        59.93234
1024.35        57.78846
1024.73        58.11846
