SpectraSmart Spectrum 2.9.0.0
--------- Device Information -----------
Spectrum Name :  反射率_0
Saving Time :  2024/04/27 00:36:29
Spectro-Module Model Name : SE2030-DUVN
Spectro-Module Serial Number : OS361AC55029948
Wavelength Start : 200
Wavelength End : 1025
Wavelength Unit : Wavelength(nm)
Spectrum Unit : Reflectance(%)
-----------Spectrum Setting ------------
Integration Time : 20ms
Average : 10
Boxcar : 0
Background removal :  enabled
linearity correction :  enabled
SC :  disabled
Intensity correction :  disabled
DWT denoise :  enabled
savitzky-golay :  disabled
FFT :  disabled
Running average :  disabled
Kalman :  disabled
High pass :  disabled
---------------BEGIN--------------------
Wavelength(nm)             Reflectance(%)
200.29               0
200.75        37.18422
201.21        39.01047
201.67        40.91252
202.13        41.49092
202.58        40.53739
203.04        38.83694
203.50        36.88574
203.96        36.06921
204.42        37.51038
204.88         40.7948
205.34        45.37656
205.80         50.1056
206.26        53.77161
206.72        55.86087
207.18        56.54578
207.64        56.20735
208.10        55.02784
208.55        53.31074
209.01        49.58095
209.47        43.66645
209.93        38.46916
210.39        35.43269
210.85        34.74706
211.31        36.23974
211.77        40.44962
212.23        50.95718
212.69        77.58477
213.14        121.8108
213.60        117.9233
214.06        84.78806
214.52        63.71023
214.98        56.39007
215.44        55.91607
215.90        58.08394
216.36        61.14751
216.81        62.71202
217.27        62.09063
217.73        60.47828
218.19        57.08677
218.65        51.45448
219.11        46.74381
219.57         44.0677
220.02        43.87159
220.48        46.94207
220.94        53.30976
221.40        64.06404
221.86         79.3372
222.32        90.27527
222.77        87.90987
223.23        77.99453
223.69        66.47141
224.15        56.63092
224.61        48.78934
225.06          42.174
225.52        37.63314
225.98        35.84579
226.44        36.45037
226.90        38.95596
227.36        42.22302
227.81        44.22561
228.27        44.50813
228.73        43.53033
229.19         42.4581
229.65        42.72487
230.10        44.40789
230.56        47.04055
231.02        49.40104
231.48        49.61061
231.93        47.49516
232.39        44.20845
232.85        41.19376
233.31        40.30777
233.77        41.67965
234.22        44.62341
234.68        48.02764
235.14        50.24176
235.60        50.76162
236.05        50.10254
236.51        48.71483
236.97        47.62939
237.43        47.36605
237.88        47.62038
238.34        48.37246
238.80        49.87844
239.26        52.29747
239.71        56.36093
240.17         61.5897
240.63        66.34451
241.08        69.51186
241.54        70.30216
242.00        70.55862
242.46        74.92783
242.91        86.88411
243.37        108.5284
243.83        141.0621
244.28        170.8865
244.74        176.4138
245.20        156.8073
245.66        128.7734
246.11        108.2459
246.57        96.65725
247.03        88.87057
247.48        83.87831
247.94        81.24342
248.40         80.4446
248.85        81.38184
249.31        82.15322
249.77         80.0286
250.22        74.46019
250.68        64.73603
251.14        52.68983
251.59          46.801
252.05        51.91841
252.51         64.3447
252.96        76.14655
253.42          80.543
253.88         78.2672
254.33        72.31452
254.79        67.71852
255.25        68.55071
255.70         74.3588
256.16        83.19827
256.62        90.78114
257.07        90.88102
257.53        85.23022
257.99         77.8946
258.44        71.81396
258.90        69.56818
259.35        69.91188
259.81        71.78875
260.27        73.67138
260.72        73.83727
261.18        72.46277
261.63        70.01572
262.09        67.70681
262.55        66.18124
263.00        65.31258
263.46        64.95581
263.91        64.32813
264.37        62.83733
264.83        60.51498
265.28         57.7348
265.74        55.34396
266.19        54.04584
266.65         53.9449
267.11        54.59631
267.56        55.45899
268.02        55.68983
268.47        55.03939
268.93        53.81213
269.38        52.23315
269.84        50.71931
270.30        49.40451
270.75        48.15371
271.21        47.03531
271.66        46.09308
272.12        45.32609
272.57        44.73132
273.03        44.19407
273.48        43.48727
273.94        42.61897
274.39        41.60147
274.85         40.6248
275.31        39.81101
275.76        39.15248
276.22        38.63783
276.67        38.12526
277.13        37.52254
277.58        36.75786
278.04         35.9052
278.49        35.01272
278.95        34.27346
279.40        33.66923
279.86        33.22633
280.31        32.77999
280.77        32.20867
281.22        31.46854
281.68        30.68569
282.13        29.98705
282.59        29.63383
283.04        29.61587
283.50        29.86341
283.95        30.18844
284.41        30.30729
284.86        30.14855
285.32        29.83071
285.77        29.49069
286.22         29.3924
286.68         29.5752
287.13        29.89852
287.59        30.25168
288.04        30.42099
288.50        30.37891
288.95         30.1774
289.41        29.89818
289.86        29.58192
290.32        29.30642
290.77        29.05654
291.22         28.8979
291.68        28.90895
292.13        29.10364
292.59        29.50366
293.04        30.08064
293.50        30.79699
293.95        31.62368
294.40        32.56201
294.86        33.62484
295.31        34.82492
295.77        36.15862
296.22        37.58979
296.68        39.06906
297.13        40.51196
297.58        41.91282
298.04        43.29683
298.49        44.72124
298.95        46.29788
299.40        48.02998
299.85        49.88184
300.31        51.78108
300.76        53.59325
301.21        55.29962
301.67        56.96148
302.12        58.60786
302.58        60.37034
303.03         62.2297
303.48        64.17335
303.94        66.17857
304.39        68.14661
304.84        70.08251
305.30         72.0161
305.75        73.93026
306.20        75.88943
306.66        77.90717
307.11        79.91833
307.57        81.87367
308.02         83.5921
308.47        85.07943
308.93          86.395
309.38        87.65023
309.83        89.13472
310.29        90.90272
310.74        92.86461
311.19         94.8008
311.65        96.31952
312.10        97.30746
312.55        97.87744
313.00        98.30074
313.46        99.00729
313.91         100.071
314.36         101.387
314.82        102.7149
315.27        103.6814
315.72        104.1683
316.18        104.3331
316.63        104.3492
317.08        104.5316
317.53        104.9757
317.99        105.5794
318.44        106.2476
318.89        106.7963
319.35        107.1622
319.80        107.4059
320.25        107.6021
320.70        107.8667
321.16        108.2244
321.61        108.6735
322.06        109.1101
322.51        109.3814
322.97        109.4451
323.42        109.3578
323.87        109.2945
324.32          109.56
324.78        110.1752
325.23        111.1273
325.68        112.0849
326.13        112.5039
326.59        112.2564
327.04        111.5397
327.49        110.7355
327.94        110.4816
328.39         110.938
328.85        111.8812
329.30        113.1028
329.75        113.9569
330.20        114.2251
330.66         114.058
331.11        113.7504
331.56        113.6963
332.01         114.024
332.46        114.5812
332.92        115.1517
333.37        115.5548
333.82        115.6613
334.27        115.6117
334.72         115.519
335.17        115.5361
335.63         115.726
336.08        116.0993
336.53        116.6774
336.98        117.5484
337.43        118.6833
337.88        120.0014
338.34        121.3285
338.79        122.4992
339.24        123.3652
339.69        123.9717
340.14        124.2533
340.59         124.144
341.05        123.7334
341.50        123.0712
341.95        122.4853
342.40        122.4663
342.85        123.1074
343.30        124.2736
343.75        125.6366
344.20        126.6252
344.66        127.0723
345.11        127.1325
345.56        126.9934
346.01        126.9744
346.46        127.1872
346.91        127.5249
347.36        127.9319
347.81        128.3458
348.26        128.7195
348.72        129.0656
349.17        129.3737
349.62        129.6527
350.07        129.8933
350.52        130.1091
350.97        130.1683
351.42        129.8772
351.87        129.2426
352.32        128.3442
352.77        127.5043
353.22        127.1863
353.67         127.456
354.13        128.1697
354.58        128.9563
355.03        129.1464
355.48        128.5774
355.93        127.4522
356.38        126.1909
356.83        125.4299
357.28        125.2961
357.73        125.5642
358.18        125.8805
358.63        125.6825
359.08          124.83
359.53        123.5374
359.98         122.076
360.43        120.8235
360.88        119.8828
361.33        119.1328
361.78         118.454
362.23        117.6714
362.68         116.748
363.13        115.7734
363.58        114.8206
364.03        113.9787
364.48        113.2557
364.93        112.5846
365.38          111.93
365.83        111.2551
366.28         110.545
366.73         109.831
367.18         109.068
367.63        108.1763
368.08        107.1631
368.53        106.0609
368.98        105.0041
369.43        104.2063
369.88        103.7009
370.33        103.4119
370.78        103.1833
371.23        102.7571
371.68        102.0561
372.13         101.153
372.58        100.1455
373.03        99.19148
373.48        98.34542
373.93        97.56015
374.38        96.81205
374.83        96.07299
375.28        95.33289
375.72        94.59314
376.17        93.91422
376.62        93.25906
377.07        92.63766
377.52        92.08009
377.97        91.56765
378.42        91.09039
378.87         90.6478
379.32        90.19629
379.77         89.8474
380.22        89.76811
380.67        89.94238
381.11        90.34525
381.56        90.59828
382.01        90.17118
382.46        89.01553
382.91        87.38491
383.36        85.77813
383.81         84.8772
384.26        84.78792
384.71        85.27518
385.15        86.01285
385.60        86.42567
386.05        86.32602
386.50        85.88448
386.95        85.21792
387.40        84.51504
387.85        83.87287
388.29        83.18609
388.74        82.60698
389.19         82.1437
389.64        81.78916
390.09        81.53687
390.54         81.3434
390.98        81.10391
391.43        80.83418
391.88        80.54641
392.33        80.25286
392.78        79.95238
393.23        79.64849
393.67        79.35957
394.12        79.16005
394.57        78.87086
395.02         78.5512
395.47         78.4903
395.91        78.62559
396.36        78.54298
396.81        78.23176
397.26        77.90824
397.71        77.60633
398.15        77.29185
398.60        77.07175
399.05        76.79581
399.50        76.49776
399.95        76.47478
400.39        76.63635
400.84        76.32442
401.29         75.6226
401.74        75.32857
402.18        75.41568
402.63        75.10159
403.08        74.49255
403.53        74.25412
403.97        74.41178
404.42        74.65326
404.87        74.83891
405.32        74.86046
405.76        74.66681
406.21        74.32095
406.66        73.93601
407.11        73.74326
407.55         73.8168
408.00        73.93922
408.45        74.03364
408.90        74.23573
409.34        74.34396
409.79         73.7598
410.24        72.75125
410.68        72.24361
411.13        72.32843
411.58        72.54731
412.03         72.7239
412.47        72.74737
412.92        72.52931
413.37        72.15208
413.81        71.76256
414.26        71.63892
414.71         71.8028
415.15        72.19336
415.60         72.6515
416.05         72.9813
416.49        73.10827
416.94        73.07901
417.39        72.96811
417.83         72.8717
418.28        72.83816
418.73        72.84863
419.17        72.88357
419.62        72.91886
420.07        72.92932
420.51        72.89021
420.96        72.88568
421.41        72.91788
421.85        72.94755
422.30        73.21384
422.74        73.47751
423.19         73.0956
423.64        72.20901
424.08        71.83699
424.53        72.04906
424.98        72.14011
425.42        72.10712
425.87          72.489
426.31        73.10873
426.76        73.16299
427.21        72.70667
427.65        72.42529
428.10        72.38514
428.54        72.38298
428.99        72.49126
429.44        72.45961
429.88         72.4307
430.33        73.27855
430.77        74.50784
431.22        74.78928
431.66        74.11173
432.11          73.225
432.56        72.52285
433.00        72.59185
433.45         73.5259
433.89        74.41161
434.34        74.48026
434.78        75.77661
435.23        74.50735
435.67        72.79802
436.12        73.09431
436.57        73.22996
437.01        73.92807
437.46        74.15225
437.90        73.90229
438.35        73.51218
438.79         73.6104
439.24        73.65894
439.68        73.79073
440.13        74.13005
440.57        74.63567
441.02          74.768
441.46        74.57375
441.91        75.16336
442.35        76.12212
442.80        75.85909
443.24         74.6854
443.69        74.72754
444.13        75.83495
444.58        76.49785
445.02        76.07896
445.47        76.05739
445.91         76.3329
446.36        76.58372
446.80        76.79169
447.24        77.07001
447.69        77.35369
448.13        77.44378
448.58        77.36909
449.02         77.2748
449.47         77.2225
449.91         77.1583
450.36        77.12597
450.80        77.15759
451.25        77.24409
451.69        77.27119
452.13        77.23993
452.58        77.17545
453.02        77.10629
453.47        77.08424
453.91        77.10606
454.36        77.16251
454.80        77.21418
455.24        77.07322
455.69        76.71884
456.13        76.44248
456.58        76.38931
457.02        75.52445
457.46        75.39965
457.91        75.57412
458.35        76.13151
458.79        76.08933
459.24        75.47393
459.68        74.55963
460.13         73.6031
460.57        73.59808
461.01        73.80526
461.46        73.90568
461.90        74.12245
462.34        75.68204
462.79        74.83657
463.23        75.00766
463.68        74.97794
464.12        74.79787
464.56        74.39892
465.01        73.52431
465.45        72.48975
465.89        72.39353
466.34        73.01688
466.78        73.25674
467.22        73.08102
467.67        72.38747
468.11        72.45282
468.55        72.54887
468.99        72.89194
469.44        72.88483
469.88        72.51342
470.32        72.17026
470.77        71.93757
471.21        71.77325
471.65        71.69036
472.10        71.70615
472.54        71.79025
472.98         71.8481
473.42        71.83891
473.87        71.95578
474.31        72.07001
474.75        71.68171
475.20        70.96259
475.64        70.80443
476.08        71.24815
476.52        71.19996
476.97        70.53026
477.41        70.99796
477.85         71.5122
478.29        70.27766
478.74        71.02216
479.18         71.4343
479.62        71.09958
480.06        71.07666
480.50        70.87508
480.95        71.06757
481.39        71.21238
481.83        70.41147
482.27        70.87682
482.72        70.70753
483.16        70.65605
483.60        70.64873
484.04        70.70723
484.48        70.98349
484.93        71.26196
485.37        70.80894
485.81        70.35754
486.25        69.62953
486.69        71.67003
487.14        72.09631
487.58        69.76445
488.02        70.59722
488.46        69.60127
488.90        69.67635
489.34        71.19217
489.79        71.60642
490.23        71.36378
490.67        70.72215
491.11        70.06042
491.55        69.89909
491.99        70.17348
492.43        70.09688
492.88        69.65764
493.32        69.49067
493.76        69.63147
494.20        69.73405
494.64        69.75975
495.08        69.92438
495.52        70.14626
495.96        69.98567
496.41        69.55444
496.85        69.60855
497.29        69.95635
497.73        70.07529
498.17        69.14318
498.61        68.98591
499.05        69.35062
499.49        69.58232
499.93        69.36694
500.37        69.46582
500.82        69.80085
501.26        69.60971
501.70        69.43959
502.14        69.74626
502.58        69.74135
503.02        69.87848
503.46        69.87327
503.90        69.91224
504.34        69.95531
504.78        69.90329
505.22        69.76234
505.66        69.52736
506.10        69.29361
506.54        69.22643
506.98        69.28497
507.42         69.3694
507.86        69.47247
508.30        69.08497
508.74        69.41641
509.18        69.36209
509.62        69.28852
510.06        69.23377
510.50        69.21241
510.94        69.19103
511.38        69.16133
511.82        69.14513
512.26        69.14341
512.70        69.16055
513.14        69.19203
513.58         69.2263
514.02         69.2584
514.46        69.28323
514.90        69.30984
515.34         69.3549
515.78         69.4146
516.22         69.4791
516.66          69.514
517.10         69.4659
517.54        69.33115
517.98        69.13676
518.42        68.93053
518.86        68.78747
519.30        68.73071
519.74        68.73982
520.18        68.79798
520.62        68.87385
521.06        68.95486
521.50        69.05494
521.93        69.16092
522.37        69.22877
522.81        69.25982
523.25        69.25142
523.69        69.24236
524.13        69.30156
524.57        69.43185
525.01        69.60016
525.45        69.74349
525.89        69.75996
526.32        69.62186
526.76        69.39091
527.20        69.10873
527.64        68.84573
528.08        68.63541
528.52        68.46321
528.96        68.35505
529.40        68.34805
529.83        68.43476
530.27        68.60934
530.71        68.80037
531.15        68.89831
531.59         68.8766
532.03          68.758
532.46        68.58977
532.90        68.50062
533.34         68.5069
533.78        68.53355
534.22        68.54263
534.66         68.5611
535.09         68.5265
535.53        68.30527
535.97        67.95881
536.41        67.75745
536.85        67.73387
537.28        67.75293
537.72        67.80541
538.16        67.92799
538.60        68.10136
539.04        68.30945
539.47         68.4924
539.91        68.60334
540.35         68.6164
540.79        68.54884
541.22        68.44041
541.66        68.38152
542.10         68.3863
542.54        68.43017
542.97        68.47375
543.41        68.48671
543.85        68.44707
544.29        68.37936
544.72        68.28601
545.16        68.19976
545.60        68.12048
546.04         68.0783
546.47        68.08306
546.91        68.09674
547.35        68.14941
547.79        68.32304
548.22         68.5612
548.66        68.76551
549.10        68.92085
549.53        68.80386
549.97        68.51212
550.41        68.24145
550.84        68.08963
551.28        68.16517
551.72        68.39537
552.15        68.31716
552.59        68.41058
553.03          68.033
553.46        68.32217
553.90        68.14063
554.34        68.18327
554.77        68.23949
555.21        68.46934
555.65        68.23354
556.08        68.55243
556.52        68.55929
556.96        68.53281
557.39         68.5562
557.83        68.59776
558.27        68.34055
558.70        67.87012
559.14        67.69565
559.57        67.79775
560.01        67.85868
560.45        67.86282
560.88        67.93672
561.32        68.08791
561.75        68.31326
562.19        68.56451
562.63        68.47976
563.06         68.1692
563.50        68.28253
563.93        68.67311
564.37        68.76088
564.80         68.5503
565.24        68.23933
565.68        67.78761
566.11        68.42818
566.55        67.72772
566.98        67.74416
567.42        67.80772
567.85        67.89247
568.29        68.23866
568.72        68.45846
569.16        68.78435
569.60        69.22437
570.03        68.96021
570.47        69.14099
570.90        69.56001
571.34        68.51591
571.77        69.14104
572.21        69.25819
572.64        69.13662
573.08        69.30811
573.51        68.75927
573.95        68.82709
574.38        69.41165
574.82        69.22631
575.25        68.97855
575.69        69.03989
576.12        69.12898
576.56        68.09618
576.99        68.54989
577.42        68.85855
577.86        68.77387
578.29        69.99638
578.73        69.70563
579.16        69.57051
579.60        68.89488
580.03         68.9172
580.47         68.7261
580.90        69.56179
581.33        69.66962
581.77        69.66689
582.20        69.79243
582.64        69.99982
583.07         69.3646
583.51        68.99105
583.94        68.83513
584.37        68.94874
584.81        69.30706
585.24        69.38287
585.68        69.13554
586.11        69.21219
586.54        69.17522
586.98        68.57982
587.41        68.28226
587.85        68.96587
588.28          68.586
588.71        68.58016
589.15        68.15058
589.58        68.63689
590.01         68.0396
590.45        68.11131
590.88        68.92591
591.31         68.8852
591.75        68.36481
592.18        68.00668
592.61        67.94222
593.05        68.91171
593.48        69.56839
593.91         69.0472
594.35        68.96993
594.78        68.21537
595.21        67.55784
595.65        67.98942
596.08        69.50361
596.51        69.02982
596.94        68.53429
597.38        67.99555
597.81        68.39849
598.24        68.93565
598.68        68.51196
599.11        68.47652
599.54        69.54751
599.97        69.07863
600.41        68.86587
600.84        68.28439
601.27        68.78706
601.70        68.66502
602.14        68.78134
602.57        68.60842
603.00        68.56057
603.43        67.87594
603.87        68.93761
604.30        68.93326
604.73        68.74529
605.16        67.82452
605.60        68.19151
606.03        67.99093
606.46        67.75939
606.89        67.79562
607.32        68.52412
607.76        67.89177
608.19         68.4935
608.62        68.36057
609.05        68.33782
609.48         68.2794
609.92        69.09021
610.35        68.82132
610.78        68.12397
611.21        68.23656
611.64         68.1563
612.07        68.39954
612.50        68.25701
612.94        68.17091
613.37        67.96485
613.80        68.19587
614.23        67.32521
614.66        67.45004
615.09        68.03222
615.52        68.22906
615.96        67.92101
616.39        68.25352
616.82        68.27481
617.25        67.90942
617.68        67.82079
618.11        67.80807
618.54        68.06459
618.97        68.11667
619.40        67.99529
619.84         67.7517
620.27        67.67904
620.70        67.71278
621.13         67.9102
621.56         67.1652
621.99         66.6803
622.42        66.59682
622.85        67.21705
623.28        67.02336
623.71        67.26404
624.14        67.18279
624.57         67.5686
625.00        67.62656
625.43        67.44851
625.86        67.31364
626.29         67.3353
626.72        66.69477
627.15        67.16545
627.58        67.24294
628.01        67.26575
628.44        67.56091
628.87        67.03731
629.30         66.8725
629.73        66.71661
630.16        67.23849
630.59        66.91491
631.02        67.17733
631.45        67.53537
631.88        67.66775
632.31        67.49163
632.74        67.70782
633.17         67.2976
633.60         67.1637
634.03        67.02207
634.46        66.88091
634.89        66.74983
635.32        66.67921
635.75         66.6902
636.18        66.70594
636.61        66.72427
637.04        66.76303
637.47        66.81295
637.89        66.86473
638.32        66.87588
638.75        66.84274
639.18        66.76614
639.61        66.64935
640.04        66.53684
640.47        66.50026
640.90        66.55256
641.33        66.67564
641.76        66.81495
642.18        66.88572
642.61        66.84315
643.04        66.72003
643.47        66.56906
643.90        66.47662
644.33        66.46458
644.76        66.50928
645.18        66.56618
645.61        66.54424
646.04         66.4372
646.47         66.2839
646.90        66.14275
647.33         66.1011
647.75        66.15069
648.18        66.29636
648.61        66.53371
649.04        66.65346
649.47        66.56014
649.89        67.21374
650.32        66.80729
650.75        66.79559
651.18        66.70695
651.61        66.55377
652.03         66.4407
652.46        66.70551
652.89        67.20428
653.32        67.35438
653.74        66.90078
654.17        66.57192
654.60        66.99503
655.03        66.84521
655.46        65.76105
655.88        66.32848
656.31        69.72794
656.74        72.40726
657.16        70.76568
657.59        69.90865
658.02        67.74454
658.45        68.03505
658.87        67.24884
659.30        67.46463
659.73        67.17428
660.15        67.93071
660.58         66.7206
661.01        66.67135
661.44        66.91856
661.86        66.59865
662.29        65.77719
662.72        66.17088
663.14        66.44356
663.57        66.49664
664.00        66.05583
664.42        66.07733
664.85        66.57999
665.27        67.06388
665.70        67.34898
666.13        67.43027
666.55        67.27926
666.98        66.83915
667.41        66.24857
667.83        66.16446
668.26        65.96191
668.69         66.1338
669.11        66.41043
669.54        66.66035
669.96        66.83031
670.39        67.00396
670.82        67.17099
671.24        67.15102
671.67        67.00207
672.09        67.00587
672.52        67.14227
672.94          67.096
673.37        66.86916
673.80         66.6394
674.22        66.47051
674.65        66.34781
675.07         66.3073
675.50        66.34154
675.92        66.41438
676.35        66.44985
676.77        66.43089
677.20        66.37424
677.62        66.31442
678.05         66.3089
678.47        66.36794
678.90        66.47314
679.32         66.5888
679.75        66.67598
680.17        66.71416
680.60        66.71483
681.02         66.7019
681.45        66.69994
681.87         66.7281
682.30        66.79024
682.72        66.86658
683.15         66.8348
683.57        66.72321
684.00        66.64905
684.42        66.65622
684.85        66.71992
685.27        66.83332
685.70        67.04335
686.12        67.26323
686.54        67.32828
686.97        67.22084
687.39        67.03681
687.82        66.82933
688.24        66.68136
688.66        66.61515
689.09        66.58345
689.51        66.59245
689.94        66.64651
690.36        66.73954
690.78        66.83802
691.21        66.93716
691.63        67.03193
692.06        67.11696
692.48        67.19706
692.90        67.23361
693.33        67.17641
693.75        67.02538
694.17        66.77232
694.60        66.52808
695.02        66.49023
695.44        66.66495
695.87        66.97511
696.29        67.29692
696.71        67.28812
697.14        66.99425
697.56        66.82546
697.98        66.85813
698.41        66.88486
698.83        66.90778
699.25        67.12282
699.68        67.39782
700.10        67.47657
700.52        67.29693
700.94         66.9472
701.37        66.57358
701.79        66.46161
702.21        66.58566
702.64        66.91527
703.06        67.30686
703.48        67.54767
703.90         67.5713
704.33        67.44175
704.75        67.23622
705.17        67.06795
705.59        66.98563
706.01        66.95554
706.44        66.95827
706.86        66.99988
707.28        67.06521
707.70        67.11958
708.12        67.18306
708.55        67.36768
708.97        67.61868
709.39        67.67464
709.81        67.55042
710.23        67.52103
710.66        67.60081
711.08        67.64543
711.50        67.61234
711.92        67.52873
712.34        67.39727
712.76        67.22663
713.19        67.05023
713.61        66.96043
714.03         66.9678
714.45        67.06059
714.87        67.21933
715.29        67.41158
715.71        67.61409
716.13        67.81279
716.56        67.97858
716.98        68.15836
717.40        68.30777
717.82        68.41608
718.24        68.42986
718.66        68.26943
719.08        67.94971
719.50        67.53226
719.92        67.13058
720.34          66.911
720.76        66.91287
721.19        67.06423
721.61        67.34311
722.03        67.65503
722.45          67.942
722.87        68.21339
723.29          68.393
723.71        68.36242
724.13        68.11612
724.55        67.69968
724.97        67.24949
725.39        66.97297
725.81        66.92917
726.23        67.09334
726.65         67.3994
727.07        67.60736
727.49        67.86067
727.91        68.03333
728.33        68.19069
728.75        68.34196
729.17        68.48981
729.59        68.59895
730.01        68.63416
730.43         68.6456
730.85        68.64758
731.27        68.48709
731.69        68.15417
732.10        68.42311
732.52        68.03387
732.94        68.02379
733.36        68.01488
733.78        67.90005
734.20        67.65607
734.62        67.58373
735.04        67.81933
735.46        67.27687
735.88        67.96214
736.30        68.22144
736.72        68.58992
737.13         68.8901
737.55        69.02607
737.97        69.21486
738.39        69.36126
738.81        68.95618
739.23        68.21694
739.65        68.14774
740.06        68.64758
740.48        68.88477
740.90        68.82669
741.32        68.50375
741.74        68.87241
742.16        68.90271
742.57        68.87135
742.99        68.81789
743.41        68.76125
743.83        68.69468
744.25        68.61624
744.67        68.51435
745.08        68.45161
745.50        68.50716
745.92        68.69659
746.34        68.99407
746.75        69.27467
747.17        69.32436
747.59        69.11086
748.01        68.69559
748.42        68.25088
748.84         68.0549
749.26        68.16702
749.68        68.49892
750.09        68.88177
750.51        69.03397
750.93        68.88476
751.35         68.5812
751.76        68.22951
752.18        67.91283
752.60        67.66537
753.01         67.7597
753.43        67.65023
753.85         67.7119
754.27        67.78246
754.68          67.906
755.10        68.06493
755.52        68.23088
755.93        68.38332
756.35        68.48829
756.77        68.59958
757.18        68.72272
757.60        68.85473
758.02        69.19289
758.43         69.5929
758.85        69.15627
759.26         68.8066
759.68        68.37031
760.10        68.47763
760.51         68.7131
760.93        69.09592
761.34        69.03553
761.76        69.19231
762.18        69.34304
762.59        69.65408
763.01        69.62181
763.42        69.36076
763.84        69.21355
764.26        69.23022
764.67        69.35973
765.09        69.49859
765.50        69.11739
765.92        68.41041
766.33        68.17181
766.75        68.37556
767.16        68.44212
767.58        68.30251
768.00        68.37684
768.41        68.67349
768.83        68.94523
769.24        69.12432
769.66        69.25208
770.07        69.30524
770.49        69.14922
770.90        68.92065
771.32        69.15959
771.73         69.7512
772.15        69.92123
772.56        69.63372
772.97        69.28237
773.39        69.00806
773.80        68.88612
774.22        68.94199
774.63        69.19942
775.05        69.50185
775.46        69.67069
775.88        69.62214
776.29        69.43452
776.70        69.21495
777.12        69.15868
777.53        69.32304
777.95        69.60655
778.36        69.91709
778.77        70.06277
779.19        70.00631
779.60        69.82677
780.02        69.58524
780.43        69.41356
780.84        69.36815
781.26        69.24783
781.67        69.12492
782.09        69.43739
782.50        70.01855
782.91        70.05291
783.33        69.58505
783.74        69.42176
784.15        69.59194
784.57        69.66819
784.98        69.65374
785.39         69.6573
785.81        69.72859
786.22        70.04407
786.63        70.50981
787.04        70.76511
787.46        70.77888
787.87        70.69918
788.28        70.60364
788.70        70.51769
789.11        70.44249
789.52        70.44865
789.93         70.4934
790.35        70.37164
790.76        70.14191
791.17        70.10876
791.58        70.26749
792.00        70.28831
792.41        70.16232
792.82        70.19322
793.23        70.36081
793.65        70.19154
794.06        69.86156
794.47        70.21944
794.88        71.03862
795.29        71.30087
795.71        70.91264
796.12        70.42477
796.53        70.03811
796.94        69.89377
797.35        70.08567
797.76        70.57984
798.18        71.14787
798.59        71.46245
799.00        71.40596
799.41        71.06693
799.82        70.63459
800.23        70.42756
800.64         70.5266
801.06        70.80351
801.47        71.13593
801.88        71.22662
802.29        71.00082
802.70        70.56308
803.11        70.07466
803.52        69.78795
803.93        69.78907
804.34        70.00379
804.75        70.33315
805.17        70.64104
805.58        70.90639
805.99        71.01987
806.40         71.0293
806.81        71.31422
807.22        71.74315
807.63         71.5983
808.04        70.97451
808.45        70.63712
808.86        70.65974
809.27        70.66087
809.68        70.58285
810.09        70.51393
810.50        70.44758
810.91        70.35843
811.32        70.34271
811.73        70.55522
812.14        71.00531
812.55         71.6325
812.96        72.24431
813.37        72.48235
813.78        72.25109
814.19        71.68727
814.60        70.98656
815.01        70.41248
815.42        70.03745
815.83        69.78641
816.24        69.66623
816.65         69.6854
817.05        69.83578
817.46        70.10741
817.87        70.41228
818.28        70.55296
818.69         70.4912
819.10        70.24612
819.51        69.98089
819.92        70.00537
820.33        70.38542
820.74        71.01559
821.14        71.66769
821.55        71.97369
821.96        71.84892
822.37        71.40837
822.78        70.84898
823.19        70.50436
823.60        70.48629
824.00        70.72787
824.41        71.05891
824.82        71.29644
825.23        71.35936
825.64         71.3088
826.04        71.22035
826.45        71.16762
826.86        71.19221
827.27        71.26812
827.68         71.3298
828.08        71.30462
828.49        71.12883
828.90        70.85417
829.31        70.60723
829.72        70.59155
830.12        70.86597
830.53        71.30293
830.94        71.73214
831.35        71.81294
831.75        71.48066
832.16         70.8383
832.57         70.0927
832.97        69.54771
833.38        69.30641
833.79        69.26185
834.20        69.39883
834.60        69.68642
835.01        70.08522
835.42         70.6537
835.82        71.24014
836.23        71.49143
836.64        71.36418
837.04        70.89945
837.45        70.42705
837.86          70.566
838.26        71.45345
838.67        72.86338
839.08        74.28477
839.48         74.7571
839.89        74.03725
840.29        72.48987
840.70        70.81306
841.11        69.81178
841.51        69.70014
841.92        70.21493
842.33        71.10176
842.73        71.90478
843.14        72.32563
843.54        72.55401
843.95        72.66117
844.35         72.8143
844.76        73.03832
845.17        73.23835
845.57        73.35376
845.98        73.28883
846.38        73.05388
846.79        72.69829
847.19        72.31519
847.60         72.0146
848.00        71.84525
848.41        71.75414
848.81        71.73662
849.22        71.69141
849.62        71.63561
850.03        71.59666
850.43        71.57783
850.84        71.51111
851.24        71.43555
851.65        71.28017
852.05        71.23276
852.46        71.50406
852.86        72.09825
853.27         72.9107
853.67         73.5864
854.07        73.76064
854.48        73.35751
854.88        72.52393
855.29        71.48133
855.69        70.78478
856.10        70.55482
856.50        70.72923
856.90         71.0946
857.31        71.29932
857.71        71.27638
858.12        71.06235
858.52        70.79266
858.92        70.57011
859.33        70.42094
859.73        70.34312
860.13        70.23836
860.54        69.98514
860.94        69.61645
861.34        69.18221
861.75        68.82079
862.15        68.78572
862.55        69.10522
862.96         69.6576
863.36        70.32868
863.76        70.83578
864.17        71.05925
864.57        71.08865
864.97        70.92105
865.38        70.57475
865.78        70.12119
866.18        69.56097
866.58        69.02502
866.99        68.75109
867.39        68.82814
867.79         69.1882
868.19        69.70721
868.60        70.15377
869.00        70.47745
869.40        70.69953
869.80        70.81944
870.21        70.84586
870.61        70.85272
871.01        70.78959
871.41        70.62716
871.81        70.33035
872.22        69.90376
872.62        69.36531
873.02         68.8821
873.42         68.7187
873.82        68.93034
874.22        69.44566
874.63        70.00168
875.03        70.19437
875.43        69.92258
875.83        69.30647
876.23        68.63017
876.63        68.33979
877.03        68.54099
877.44        69.07613
877.84        69.71455
878.24        70.06425
878.64        69.97363
879.04          69.457
879.44        68.81705
879.84        68.60336
880.24        68.89197
880.64        69.46597
881.04        70.01187
881.44        70.04797
881.84        69.47219
882.24         68.4849
882.65        67.42108
883.05        66.78057
883.45        66.71055
883.85        67.06858
884.25        67.67816
884.65        68.22924
885.05        68.59631
885.45        68.86065
885.85        69.06358
886.25        69.27492
886.65        69.51022
887.05        69.69978
887.45        69.82147
887.85        69.86732
888.25        69.82581
888.65        69.71855
889.04        69.52107
889.44        69.21257
889.84        68.79855
890.24        68.31311
890.64        67.84758
891.04        67.54884
891.44        67.46014
891.84        67.54986
892.24        67.74509
892.64        67.92085
893.04        68.05228
893.44        68.18959
893.83        68.37903
894.23        68.64558
894.63        69.00301
895.03        69.37428
895.43        69.77103
895.83         70.2311
896.23        70.71651
896.63        71.19817
897.02        71.47259
897.42        71.24992
897.82         70.5135
898.22        69.41069
898.62        68.25292
899.01        67.49079
899.41        67.25211
899.81        67.40518
900.21        67.76282
900.61         68.0057
901.00        68.02547
901.40        67.90654
901.80        67.73194
902.20        67.62554
902.59        67.64471
902.99        67.74347
903.39        67.86261
903.79        67.91962
904.18        67.88194
904.58        67.76414
904.98        67.71215
905.38        67.95145
905.77        68.50629
906.17        69.33289
906.57        70.10229
906.96         70.2729
907.36        69.73169
907.76        68.65942
908.15        67.58257
908.55        67.31689
908.95        68.04263
909.34        69.51431
909.74         71.1311
910.14         71.9762
910.53        71.76014
910.93        70.79254
911.33        69.48026
911.72        68.44007
912.12        67.94226
912.52        67.81461
912.91        67.89085
913.31        67.94928
913.70        67.91888
914.10        67.84521
914.49        67.92165
914.89         68.3577
915.29        69.17923
915.68        70.27574
916.08         71.2119
916.47        71.36749
916.87        70.65475
917.26        69.29529
917.66        67.86194
918.05        67.04829
918.45        67.02742
918.84        67.64719
919.24          68.552
919.64        69.23609
920.03        69.52048
920.42        69.50573
920.82        69.43257
921.21        69.62358
921.61         70.1308
922.00        70.85907
922.40        71.50864
922.79        71.73947
923.19        71.43425
923.58        70.75655
923.98        70.00578
924.37         69.5358
924.77        69.45203
925.16        69.61711
925.55        69.88277
925.95        69.96781
926.34        69.80659
926.74        69.48382
927.13        69.06567
927.52        68.58338
927.92        68.12657
928.31        67.66736
928.70        67.31409
929.10        67.20988
929.49        67.35132
929.89        67.63976
930.28        68.06025
930.67        68.45847
931.07        68.74109
931.46        69.02798
931.85        69.13952
932.24        68.84717
932.64        68.20425
933.03        67.26262
933.42        66.48206
933.82        66.52747
934.21         67.4988
934.60        69.23743
934.99         71.1766
935.39        72.27647
935.78         72.2636
936.17        71.32062
936.56        69.99647
936.96         69.1753
937.35        69.10371
937.74        69.54163
938.13        70.05831
938.53        69.99485
938.92        69.22566
939.31        68.03974
939.70        66.88183
940.09        66.35466
940.49        66.55677
940.88        67.31789
941.27        68.31848
941.66        68.98041
942.05        69.11324
942.44        68.90923
942.84        68.59596
943.23        68.52502
943.62        68.79675
944.01        69.22688
944.40        69.74516
944.79        70.27293
945.18         70.7229
945.57        71.11542
945.97        71.22428
946.36        70.77899
946.75        69.74238
947.14        68.29964
947.53        66.81191
947.92        65.77445
948.31        65.31823
948.70        65.33981
949.09        65.70808
949.48        66.16914
949.87        66.60809
950.26        67.06595
950.65        67.54594
951.04        68.06544
951.43        68.59126
951.82        69.03812
952.21        69.32349
952.60         69.3543
952.99        69.14993
953.38        68.81554
953.77        68.43201
954.16        68.11712
954.55        67.91176
954.94        67.73605
955.33        67.72533
955.72        68.10019
956.11        68.84463
956.50        69.90199
956.89        70.76337
957.28        70.57644
957.66        69.22113
958.05        67.07977
958.44        64.89883
958.83        63.74464
959.22        63.83015
959.61        64.83675
960.00         66.3083
960.39        67.36154
960.78        67.64502
961.16        67.41111
961.55        66.90173
961.94        66.39758
962.33        66.02509
962.72        65.67532
963.11        65.39678
963.49        65.37103
963.88        65.55335
964.27        65.91213
964.66        66.39325
965.04        66.92825
965.43        67.41173
965.82        67.88377
966.21        68.09224
966.60         67.6123
966.98        66.41415
967.37        64.77515
967.76        63.21559
968.15        62.36279
968.53        62.33239
968.92         62.9867
969.31        64.01973
969.69        64.78425
970.08         64.9542
970.47        64.70525
970.86        64.40521
971.24        64.61549
971.63        65.45066
972.02         66.7267
972.40        68.05495
972.79        68.43608
973.17        67.69003
973.56        66.21851
973.95        64.63269
974.33          63.693
974.72        63.56589
975.11        63.98648
975.49        64.78185
975.88        65.52304
976.26        66.05222
976.65        66.46262
977.04        66.65386
977.42        66.43521
977.81        65.79204
978.19        64.73447
978.58        63.73565
978.96        63.55297
979.35         64.3114
979.74        65.83975
980.12         67.6107
980.51        68.40525
980.89        68.03194
981.28         66.8631
981.66         65.5141
982.05        64.84729
982.43        65.08663
982.82        65.91502
983.20         67.2332
983.59        68.72433
983.97        70.24603
984.35        71.86224
984.74        73.10775
985.12        73.45302
985.51        72.75878
985.89        71.18605
986.28        69.47868
986.66        68.71153
987.04        69.19202
987.43        70.64204
987.81        72.46764
988.20        73.33603
988.58        72.84601
988.96        71.32092
989.35        69.46938
989.73        68.28039
990.12        67.98375
990.50        68.36074
990.88        68.85104
991.27        68.52191
991.65        67.20574
992.03        65.27943
992.42        63.59943
992.80        63.28186
993.18        64.54445
993.56        67.08972
993.95        69.94713
994.33        71.44556
994.71        70.88951
995.10        68.85397
995.48        66.42254
995.86        65.27148
996.24        65.80964
996.63         67.5021
997.01        69.72358
997.39        70.83419
997.77        70.22371
998.15        68.51826
998.54        66.48402
998.92        65.06696
999.30        64.59007
999.68        64.70358
1000.06        65.22537
1000.45        65.86997
1000.83        66.59357
1001.21        67.51958
1001.59        68.56293
1001.97        69.35844
1002.35        69.76611
1002.73        69.85548
1003.12        69.80276
1003.50        69.70307
1003.88        69.70338
1004.26        69.63442
1004.64        69.71693
1005.02        70.33394
1005.40        71.50337
1005.78        73.22861
1006.16        74.60352
1006.54        74.20583
1006.92        71.97884
1007.30        68.47792
1007.69        65.24347
1008.07        64.31628
1008.45        66.27471
1008.83        70.64711
1009.21        76.13777
1009.59        79.48763
1009.97        79.11697
1010.35         75.9849
1010.73        71.46731
1011.11        67.55519
1011.49        64.97975
1011.86        63.25053
1012.24        62.32256
1012.62        62.12133
1013.00        62.51217
1013.38        63.57478
1013.76        65.17954
1014.14        66.72012
1014.52        67.75179
1014.90        68.24538
1015.28        68.02905
1015.66         67.0184
1016.04        65.34353
1016.41        63.07899
1016.79        60.85085
1017.17        59.90798
1017.55        60.55806
1017.93        62.38674
1018.31        64.68865
1018.69        66.45581
1019.06        67.47477
1019.44        68.06265
1019.82        68.21604
1020.20        67.98238
1020.58        67.44451
1020.95        66.37968
1021.33        65.50513
1021.71        65.59756
1022.09        66.78241
1022.46        69.28579
1022.84        72.00894
1023.22        72.33448
1023.60        69.45521
1023.97        64.11682
1024.35         59.2537
1024.73        58.14989
