SpectraSmart Spectrum 2.9.0.0
--------- Device Information -----------
Spectrum Name :  反射率_0
Saving Time :  2024/04/27 00:33:09
Spectro-Module Model Name : SE2030-DUVN
Spectro-Module Serial Number : OS361AC55029948
Wavelength Start : 200
Wavelength End : 1025
Wavelength Unit : Wavelength(nm)
Spectrum Unit : Reflectance(%)
-----------Spectrum Setting ------------
Integration Time : 20ms
Average : 10
Boxcar : 0
Background removal :  enabled
linearity correction :  enabled
SC :  disabled
Intensity correction :  disabled
DWT denoise :  enabled
savitzky-golay :  disabled
FFT :  disabled
Running average :  disabled
Kalman :  disabled
High pass :  disabled
---------------BEGIN--------------------
Wavelength(nm)             Reflectance(%)
200.29               0
200.75        32.93516
201.21        37.54431
201.67        42.03042
202.13        43.90327
202.58        42.94992
203.04         40.1118
203.50        36.20935
203.96        34.01332
204.42        35.55817
204.88        40.09985
205.34        46.22836
205.80         51.1559
206.26        53.30295
206.72        53.09687
207.18        51.39695
207.64        48.70021
208.10         45.0042
208.55        40.16751
209.01        32.97092
209.47        25.79714
209.93        22.74783
210.39        23.19931
210.85         26.0023
211.31        31.37662
211.77        41.34375
212.23         63.0087
212.69        115.2253
213.14        197.3962
213.60        184.9616
214.06        118.9928
214.52        76.75351
214.98        58.85137
215.44        52.13297
215.90         49.3462
216.36        48.56429
216.81        47.76068
217.27         46.3205
217.73        45.65512
218.19        44.54132
218.65          39.801
219.11        33.55521
219.57        28.61123
220.02        27.01572
220.48        30.14448
220.94        38.11887
221.40        52.31941
221.86        73.14146
222.32        89.10601
222.77        88.09659
223.23         76.9279
223.69        63.75668
224.15        53.56421
224.61        46.42499
225.06        40.69763
225.52        36.87466
225.98         35.3457
226.44        35.71305
226.90        37.73053
227.36        40.12115
227.81        40.67261
228.27        39.13789
228.73        36.21479
229.19        33.52423
229.65        32.94182
230.10        34.50727
230.56          37.566
231.02        40.53968
231.48         40.9679
231.93        38.55278
232.39        34.60853
232.85        30.89216
233.31        29.63514
233.77        31.01322
234.22        34.23446
234.68        37.89545
235.14        39.90303
235.60        39.62987
236.05        37.61451
236.51        34.77535
236.97        33.06851
237.43        33.35081
237.88        35.16816
238.34        37.65858
238.80        39.57483
239.26        40.54605
239.71        41.20203
240.17        41.88464
240.63        43.81427
241.08        47.74674
241.54        52.90585
242.00        59.26545
242.46        67.43773
242.91        78.92309
243.37        95.66287
243.83        117.9967
244.28          136.12
244.74        135.6075
245.20        116.0553
245.66        93.42124
246.11        82.12042
246.57        82.33533
247.03        89.67588
247.48        97.62859
247.94        95.22703
248.40        84.12836
248.85         71.6524
249.31        61.99525
249.77        56.48801
250.22        54.10855
250.68        53.33915
251.14        54.41285
251.59        57.77856
252.05        62.67702
252.51        68.43095
252.96        71.82144
253.42        70.65343
253.88        65.89605
254.33        58.87501
254.79        53.34445
255.25        52.18772
255.70        54.92924
256.16        60.24304
256.62        64.92311
257.07        64.37651
257.53        59.88633
257.99         54.3168
258.44        49.84344
258.90         48.4082
259.35        49.00029
259.81        50.75042
260.27        52.33804
260.72        52.24176
261.18        50.66326
261.63        48.18206
262.09        45.87696
262.55        44.42723
263.00        43.73789
263.46        43.55451
263.91        43.27768
264.37        42.40572
264.83         40.9184
265.28        39.09008
265.74           37.45
266.19        36.39373
266.65        36.00212
267.11        36.00602
267.56        36.13594
268.02        35.97342
268.47        35.40695
268.93        34.60903
269.38        33.67131
269.84        32.77529
270.30        31.97288
270.75        31.18231
271.21        30.48304
271.66        29.95923
272.12         29.6049
272.57        29.38725
273.03        29.13499
273.48        28.56438
273.94        27.67913
274.39        26.55957
274.85        25.47176
275.31         24.6754
275.76        24.19555
276.22        23.96027
276.67        23.79606
277.13        23.51012
277.58        23.03383
278.04        22.46976
278.49        21.87758
278.95        21.43195
279.40        21.12438
279.86        20.92926
280.31        20.75493
280.77        20.55094
281.22         20.2739
281.68        19.99225
282.13        19.70402
282.59        19.45683
283.04        19.24359
283.50        19.06209
283.95        18.91963
284.41        18.83636
284.86        18.81201
285.32         18.8549
285.77        18.92653
286.22        19.01503
286.68        19.11476
287.13        19.20016
287.59        19.29115
288.04        19.38594
288.50        19.49633
288.95        19.59808
289.41        19.68344
289.86        19.69288
290.32        19.65709
290.77        19.60196
291.22        19.59595
291.68         19.7263
292.13        20.01502
292.59        20.46097
293.04        21.04948
293.50        21.76561
293.95        22.58775
294.40        23.52237
294.86        24.55351
295.31         25.6478
295.77        26.80234
296.22        28.01032
296.68        29.28844
297.13        30.65635
297.58        32.12823
298.04        33.70091
298.49        35.36411
298.95        37.11535
299.40        38.93051
299.85        40.80136
300.31        42.71289
300.76        44.62889
301.21        46.54541
301.67        48.48418
302.12        50.41518
302.58        52.37212
303.03        54.32406
303.48        56.29216
303.94        58.31248
304.39        60.38133
304.84        62.52127
305.30          64.733
305.75        66.95438
306.20        69.17213
306.66           71.38
307.11        73.54015
307.57        75.64202
308.02        77.57197
308.47        79.34183
308.93        80.97887
309.38        82.54925
309.83        84.27444
310.29        86.19094
310.74        88.22662
311.19        90.19746
311.65        91.76737
312.10        92.84066
312.55        93.52204
313.00        94.04619
313.46        94.78674
313.91         95.8177
314.36          97.059
314.82        98.33805
315.27        99.38569
315.72        100.0981
316.18        100.5844
316.63        100.9351
317.08        101.3408
317.53        101.8609
317.99        102.4247
318.44        102.9785
318.89        103.4104
319.35        103.6883
319.80         103.862
320.25        103.9959
320.70        104.1877
321.16        104.4626
321.61        104.8316
322.06        105.2252
322.51        105.5373
322.97        105.7311
323.42        105.8459
323.87        105.9937
324.32        106.3806
324.78        107.0038
325.23        107.8665
325.68        108.7088
326.13        109.1148
326.59        108.9869
327.04        108.4806
327.49        107.8912
327.94        107.7224
328.39        108.1037
328.85        108.8551
329.30        109.8425
329.75        110.5607
330.20          110.84
330.66        110.7926
331.11        110.6497
331.56        110.7037
332.01        111.0527
332.46        111.5779
332.92        112.0991
333.37        112.4933
333.82        112.6459
334.27        112.6595
334.72        112.6277
335.17        112.6791
335.63        112.8649
336.08        113.2164
336.53        113.7276
336.98        114.4339
337.43        115.3154
337.88         116.318
338.34        117.3695
338.79        118.4732
339.24         119.515
339.69        120.4736
340.14         121.175
340.59        121.3718
341.05        121.0896
341.50        120.4319
341.95        119.7373
342.40        119.5182
342.85        119.9002
343.30        120.7437
343.75         121.815
344.20        122.7022
344.66        123.2664
345.11        123.6199
345.56        123.8249
346.01        123.9906
346.46        124.1754
346.91        124.3322
347.36        124.4927
347.81        124.7381
348.26        125.0596
348.72        125.4164
349.17        125.7569
349.62         126.027
350.07        126.1988
350.52        126.3202
350.97         126.269
351.42        125.8575
351.87        125.1088
352.32        124.1062
352.77        123.1987
353.22        122.8916
353.67        123.2531
354.13        124.1192
354.58        125.0902
355.03         125.447
355.48        124.9999
355.93        123.9548
356.38        122.7205
356.83        121.9206
357.28        121.6894
357.73         121.812
358.18        121.9652
358.63         121.641
359.08        120.7161
359.53        119.3895
359.98        117.9277
360.43        116.6957
360.88        115.7865
361.33        115.0895
361.78        114.4467
362.23        113.6215
362.68        112.5737
363.13        111.4103
363.58        110.2837
364.03        109.4082
364.48        108.8137
364.93        108.3947
365.38        108.0185
365.83        107.4892
366.28        106.7463
366.73        105.8574
367.18         104.866
367.63        103.8343
368.08        102.8034
368.53        101.7687
368.98        100.7757
369.43        99.89489
369.88        99.14024
370.33        98.49907
370.78        97.93561
371.23        97.38465
371.68        96.81781
372.13        96.23849
372.58        95.64168
373.03        95.02366
373.48        94.37734
373.93        93.69054
374.38        92.96084
374.83        92.19847
375.28        91.41615
375.72        90.60626
376.17        89.83644
376.62         89.0921
377.07        88.38906
377.52        87.75418
377.97        87.19013
378.42        86.71059
378.87        86.31586
379.32        85.96476
379.77        85.70232
380.22        85.59547
380.67          85.617
381.11         85.7618
381.56        85.77261
382.01        85.32672
382.46         84.4106
382.91        83.19649
383.36        82.01194
383.81        81.30056
384.26        81.12579
384.71        81.32569
385.15         81.7054
385.60        81.91463
386.05         81.8282
386.50         81.5414
386.95        81.06991
387.40        80.44813
387.85        79.73833
388.29        78.90503
388.74        78.15562
389.19        77.57443
389.64        77.17564
390.09        76.92651
390.54        76.76648
390.98        76.56907
391.43        76.33333
391.88        76.07569
392.33        75.81586
392.78        75.54858
393.23        75.27295
393.67        75.04222
394.12        74.89719
394.57        74.53714
395.02        74.05937
395.47        73.95536
395.91        74.16211
396.36        74.09341
396.81        73.73687
397.26        73.42119
397.71        73.17084
398.15        72.89906
398.60        72.71315
399.05         72.4533
399.50        72.17419
399.95        72.29623
400.39        72.71041
400.84        72.50597
401.29        71.77003
401.74        71.66501
402.18        72.06766
402.63        71.61737
403.08        70.51186
403.53        70.05229
403.97        70.30419
404.42         70.6225
404.87        70.83114
405.32        70.85406
405.76        70.61401
406.21        70.29381
406.66        69.96438
407.11        69.50539
407.55        69.11663
408.00        69.24166
408.45        69.76983
408.90        70.15188
409.34        70.14275
409.79        69.57223
410.24        68.70589
410.68        68.26069
411.13        68.32714
411.58        68.51455
412.03        68.65723
412.47        68.65719
412.92        68.43568
413.37          68.059
413.81        67.68311
414.26        67.59866
414.71        67.82719
415.15        68.30878
415.60        68.84692
416.05        69.17329
416.49        69.20367
416.94        69.00907
417.39        68.74101
417.83        68.62001
418.28        68.71203
418.73        68.94772
419.17        69.23039
419.62        69.40906
420.07        69.42885
420.51         69.3204
420.96        69.18919
421.41        69.09637
421.85        69.03612
422.30        69.15952
422.74        69.30213
423.19        69.07669
423.64        68.55743
424.08         68.3939
424.53        68.60616
424.98        68.70575
425.42        68.67664
425.87        68.92024
426.31        69.32954
426.76        69.22654
427.21        68.74489
427.65        68.72113
428.10        69.09264
428.54        69.28063
428.99        69.30714
429.44        69.09743
429.88        68.90514
430.33        69.66997
430.77        70.93104
431.22         71.4454
431.66        71.08337
432.11        70.15078
432.56        69.11861
433.00          69.119
433.45        70.26205
433.89        71.27251
434.34        71.34801
434.78        72.15398
435.23        71.18755
435.67         68.9676
436.12        69.68423
436.57        69.85966
437.01        70.61955
437.46        70.89214
437.90        70.64227
438.35        70.45363
438.79        70.40089
439.24        70.43771
439.68        70.55344
440.13        70.81732
440.57        71.19432
441.02        71.35066
441.46        71.27663
441.91        71.65735
442.35        72.22662
442.80        71.98134
443.24        71.15366
443.69        71.32211
444.13        72.33193
444.58        72.75058
445.02        72.50944
445.47        72.40192
445.91        72.52514
446.36        72.70443
446.80        72.94118
447.24        73.27253
447.69        73.60134
448.13        73.75481
448.58        73.71751
449.02        73.51687
449.47        73.26575
449.91        73.11041
450.36        73.11314
450.80        73.20439
451.25         73.3426
451.69        73.40444
452.13         73.3829
452.58        73.30157
453.02        73.19006
453.47        73.14388
453.91        73.17443
454.36        73.08395
454.80          73.148
455.24        73.00256
455.69        72.71877
456.13         72.5231
456.58        72.48158
457.02        71.96742
457.46        71.22421
457.91        71.85941
458.35         72.5642
458.79        72.71344
459.24        72.03008
459.68        71.12111
460.13        70.28393
460.57        70.03697
461.01        70.59955
461.46        70.28222
461.90        70.93037
462.34        72.19454
462.79         71.5586
463.23        71.77457
463.68        71.85103
464.12        71.67664
464.56        71.16268
465.01        70.27199
465.45        69.30797
465.89        68.99155
466.34        69.23848
466.78        69.72663
467.22        70.29573
467.67        69.58892
468.11        69.30795
468.55        69.22865
468.99        69.73847
469.44        69.75428
469.88        69.27042
470.32        68.91912
470.77        68.77823
471.21        68.70155
471.65        68.68703
472.10        68.77349
472.54        68.90194
472.98        68.93517
473.42         68.8316
473.87        68.79489
474.31        68.73613
474.75        68.23273
475.20        67.47023
475.64        67.28575
476.08        67.69182
476.52        67.69345
476.97        67.17165
477.41        67.65768
477.85        67.97621
478.29        67.38085
478.74        67.49941
479.18        68.12584
479.62        67.86112
480.06        67.94656
480.50        67.77173
480.95        67.81562
481.39        68.09242
481.83        67.40125
482.27        67.43821
482.72        67.83813
483.16        67.37115
483.60        67.45332
484.04        67.58672
484.48         67.9227
484.93        68.16306
485.37        68.18355
485.81        67.16747
486.25        66.84742
486.69        69.21126
487.14        69.65599
487.58        67.34527
488.02        67.86932
488.46        66.76521
488.90        66.96166
489.34        67.89417
489.79        68.36962
490.23        68.43847
490.67        67.90906
491.11        67.11647
491.55        66.81387
491.99        66.98985
492.43        66.84042
492.88        66.37783
493.32        66.22332
493.76        66.39893
494.20        66.56564
494.64        66.68044
495.08        66.90499
495.52        67.15527
495.96        67.10735
496.41        66.81095
496.85        66.73489
497.29        66.78539
497.73        66.72163
498.17        66.03584
498.61        65.88129
499.05        66.08826
499.49        66.31754
499.93        66.26295
500.37        66.34327
500.82        66.49702
501.26        66.48354
501.70        66.50011
502.14          66.718
502.58        66.46825
503.02        66.50541
503.46        66.61061
503.90        66.74632
504.34        66.83656
504.78        66.79311
505.22         66.6037
505.66        66.30589
506.10        66.00604
506.54        65.79207
506.98        65.68505
507.42        65.78948
507.86        66.07597
508.30        65.77146
508.74        65.98797
509.18        65.84203
509.62        65.71704
510.06        65.65273
510.50        65.67374
510.94        65.73944
511.38        65.80928
511.82        65.85378
512.26        65.85886
512.70        65.84206
513.14        65.81577
513.58        65.79723
514.02        65.79353
514.46         65.7935
514.90        65.80308
515.34        65.83511
515.78        65.88419
516.22        65.94227
516.66         65.9827
517.10         65.9611
517.54        65.87372
517.98        65.74537
518.42        65.60116
518.86        65.48133
519.30        65.40381
519.74        65.35602
520.18         65.3569
520.62        65.43342
521.06        65.58039
521.50         65.7887
521.93        65.99867
522.37        66.09122
522.81        66.04996
523.25        65.90234
523.69        65.72497
524.13        65.64219
524.57        65.68002
525.01        65.79733
525.45        65.93027
525.89        65.97318
526.32        65.89433
526.76        65.75413
527.20        65.58928
527.64        65.46128
528.08         65.3913
528.52        65.35196
528.96        65.35187
529.40        65.40702
529.83        65.50616
530.27        65.65263
530.71        65.78263
531.15        65.79998
531.59         65.6906
532.03        65.48087
532.46        65.24153
532.90        65.13219
533.34        65.17272
533.78        65.27966
534.22        65.38343
534.66        65.45683
535.09        65.42677
535.53        65.17947
535.97        64.79519
536.41        64.56748
536.85        64.53792
537.28        64.56644
537.72        64.63288
538.16        64.75507
538.60        64.90916
539.04        65.08591
539.47        65.23745
539.91        65.33092
540.35        65.34457
540.79        65.29215
541.22        65.19846
541.66        65.13054
542.10        65.09899
542.54        65.08525
542.97        65.07567
543.41        65.07827
543.85        65.07815
544.29        65.08839
544.72        65.07716
545.16        65.02639
545.60        64.92687
546.04        64.81895
546.47         64.7125
546.91        64.72824
547.35        64.86606
547.79        65.04798
548.22         65.2222
548.66         65.4075
549.10        65.59605
549.53        65.52547
549.97        65.26553
550.41         65.0181
550.84        64.89213
551.28        64.89216
551.72         64.9426
552.15        65.04133
552.59        65.25257
553.03        64.64913
553.46         65.1731
553.90        65.10091
554.34        64.99354
554.77        64.91164
555.21        64.81241
555.65        64.91296
556.08        65.13193
556.52        65.41372
556.96        65.62402
557.39        65.61339
557.83        65.39738
558.27        65.03513
558.70        64.63367
559.14        64.44698
559.57        64.48064
560.01        64.50836
560.45         64.5276
560.88        64.81583
561.32        65.28265
561.75        65.42035
562.19        65.26961
562.63        65.20656
563.06        65.25458
563.50         65.2644
563.93        65.17432
564.37        65.09725
564.80         65.0682
565.24        64.94682
565.68         64.6128
566.11        65.26829
566.55        64.57424
566.98        64.43994
567.42        64.31388
567.85        64.45986
568.29        64.84416
568.72        65.20514
569.16        65.57296
569.60        65.72878
570.03        65.86677
570.47        66.03826
570.90        66.37229
571.34        65.52287
571.77        66.17377
572.21         66.2364
572.64        65.98336
573.08        66.47047
573.51         65.5045
573.95        65.59222
574.38        66.28458
574.82        66.13158
575.25        66.26068
575.69        66.38354
576.12        66.15952
576.56        65.45568
576.99        65.68259
577.42        66.02307
577.86        65.85608
578.29        66.86069
578.73        66.72079
579.16        66.57972
579.60        65.91348
580.03        65.89843
580.47        65.63347
580.90        66.65253
581.33        66.61954
581.77        66.68361
582.20        66.79991
582.64        67.38074
583.07        66.56677
583.51        66.17111
583.94        65.89355
584.37        65.92088
584.81        66.28338
585.24        66.39733
585.68        66.15534
586.11        66.38099
586.54         66.1394
586.98        65.35722
587.41        65.37234
587.85        65.89024
588.28        65.74246
588.71        65.44877
589.15        65.04269
589.58        65.61047
590.01        65.09134
590.45        64.65836
590.88        66.07947
591.31        65.98684
591.75         65.2468
592.18        64.75954
592.61        64.79738
593.05        65.41137
593.48        66.23917
593.91        66.22641
594.35        65.88246
594.78         65.2542
595.21         64.7198
595.65        65.09017
596.08        66.35094
596.51        66.11278
596.94        65.59338
597.38        65.17538
597.81        65.28062
598.24        65.99931
598.68        65.50748
599.11        65.22587
599.54        66.19324
599.97        65.59409
600.41        65.83755
600.84        65.38319
601.27        65.80044
601.70        65.52314
602.14        65.72951
602.57        65.43727
603.00        65.20781
603.43        64.57748
603.87        65.65701
604.30        65.93294
604.73        65.55721
605.16        64.62999
605.60        64.95685
606.03        64.81887
606.46        64.69888
606.89        64.68546
607.32        65.20912
607.76        64.60408
608.19        65.20641
608.62        65.19653
609.05        65.29365
609.48        65.13795
609.92        65.62507
610.35        65.36781
610.78        65.00231
611.21        64.84487
611.64        64.86318
612.07        65.05474
612.50        65.06944
612.94        64.81135
613.37        64.75286
613.80        65.11623
614.23        64.32354
614.66        64.34052
615.09        64.75497
615.52          64.843
615.96        64.81061
616.39        64.75389
616.82        64.82288
617.25        64.55572
617.68        64.70597
618.11        64.77706
618.54        64.90201
618.97        65.01044
619.40        64.74498
619.84        64.72583
620.27         64.6155
620.70        64.75349
621.13        65.03868
621.56        64.22829
621.99        63.57987
622.42        63.66149
622.85        63.95167
623.28        63.68801
623.71          63.647
624.14        63.99252
624.57        64.23393
625.00        64.14092
625.43        64.31857
625.86        64.19607
626.29        64.05562
626.72        63.89977
627.15        63.99786
627.58        64.00562
628.01        63.88372
628.44        64.11902
628.87        63.97903
629.30        63.51485
629.73        63.64856
630.16        63.65917
630.59        63.68532
631.02        63.72696
631.45        63.97268
631.88        64.08459
632.31        64.10772
632.74        64.07485
633.17        64.00603
633.60        63.92913
634.03        63.85735
634.46        63.77595
634.89        63.68856
635.32        63.61959
635.75        63.57635
636.18        63.49127
636.61         63.3848
637.04        63.32632
637.47        63.32089
637.89        63.34235
638.32        63.35036
638.75        63.34185
639.18        63.31111
639.61        63.26104
640.04        63.21236
640.47         63.1984
640.90        63.22643
641.33        63.28868
641.76        63.36102
642.18        63.41117
642.61        63.41033
643.04        63.37484
643.47        63.33231
643.90        63.33101
644.33        63.37472
644.76         63.4403
645.18        63.49703
645.61        63.47758
646.04        63.38699
646.47        63.26683
646.90        63.13573
647.33        63.04823
647.75        62.99946
648.18        62.91341
648.61        62.88441
649.04        63.07436
649.47        63.28395
649.89        63.94093
650.32        63.33679
650.75        63.07122
651.18        62.82394
651.61        62.97461
652.03        63.45217
652.46        63.68843
652.89        63.62073
653.32        63.55862
653.74        63.63203
654.17        63.40715
654.60        63.29763
655.03        63.48105
655.46        62.78478
655.88        63.07345
656.31        66.51541
656.74        69.95655
657.16        68.57095
657.59        67.48608
658.02        64.69863
658.45        64.77107
658.87        63.79847
659.30        63.73605
659.73        63.50045
660.15        64.71337
660.58        63.11707
661.01        62.98894
661.44        63.10882
661.86        62.98375
662.29        62.55882
662.72        62.93778
663.14        62.89888
663.57        62.90792
664.00        62.69691
664.42        62.74707
664.85        63.06961
665.27         63.4091
665.70        63.63742
666.13        63.72687
666.55        63.65527
666.98        63.36052
667.41        62.93066
667.83        62.92175
668.26        62.71883
668.69        62.82809
669.11        63.01211
669.54        63.13708
669.96        63.16048
670.39        63.35014
670.82        63.32277
671.24        63.39008
671.67         63.4432
672.09        63.52919
672.52        63.62273
672.94        63.60563
673.37        63.48066
673.80        63.29316
674.22        63.11079
674.65        62.99194
675.07        62.97715
675.50        63.04124
675.92        63.13215
676.35        63.15026
676.77        63.07648
677.20         62.9394
677.62        62.80412
678.05        62.77382
678.47        62.86539
678.90        63.04337
679.32        63.23705
679.75        63.34601
680.17        63.33911
680.60        63.26469
681.02         63.1704
681.45        63.09985
681.87        63.10507
682.30        63.20783
682.72        63.37513
683.15        63.50103
683.57        63.54981
684.00        63.45028
684.42        63.28997
684.85        63.30997
685.27         63.5324
685.70        63.81133
686.12        64.02443
686.54        64.14517
686.97        64.16075
687.39        63.67542
687.82        63.53025
688.24        63.26305
688.66        63.15075
689.09        63.08855
689.51        63.15672
689.94        63.22457
690.36        63.29161
690.78        63.36896
691.21        63.46557
691.63        63.55756
692.06        63.63852
692.48        63.81303
692.90        63.85555
693.33        63.81479
693.75        63.63179
694.17        63.30741
694.60        62.99472
695.02         62.9353
695.44        63.14198
695.87        63.60132
696.29        64.10931
696.71        64.00627
697.14        63.40376
697.56        63.17227
697.98         63.3719
698.41         63.4282
698.83        63.31993
699.25        63.48191
699.68          63.799
700.10        63.93292
700.52        63.81741
700.94        63.56732
701.37        63.30029
701.79        63.20924
702.21        63.33265
702.64         63.5838
703.06         63.8631
703.48         64.0173
703.90        64.00278
704.33        63.84086
704.75        63.58007
705.17        63.48656
705.59        63.28798
706.01        63.21564
706.44        63.19689
706.86        63.30177
707.28        63.51438
707.70        63.79026
708.12        64.08204
708.55        64.35315
708.97         64.5484
709.39        64.53729
709.81        64.36049
710.23         64.2447
710.66         64.2236
711.08        64.20342
711.50        64.14581
711.92        64.05018
712.34        63.91675
712.76        63.76807
713.19         63.6302
713.61        63.57602
714.03        63.60977
714.45        63.71629
714.87        63.88313
715.29        64.09352
715.71        64.32698
716.13        64.56595
716.56        64.76696
716.98        64.94821
717.40        65.06332
717.82        65.11229
718.24         65.0705
718.66        64.90361
719.08        64.63471
719.50        64.30817
719.92        64.00806
720.34        63.85536
720.76        63.87636
721.19        64.01275
721.61        64.25379
722.03        64.52776
722.45        64.78542
722.87        65.02798
723.29         65.1806
723.71        65.12797
724.13        64.86625
724.55        64.44404
724.97        63.98325
725.39        63.69289
725.81        63.63453
726.23        63.73273
726.65        63.92691
727.07         64.2543
727.49        64.43745
727.91        64.68063
728.33        64.89289
728.75        65.04315
729.17        65.11835
729.59         65.1144
730.01        65.05101
730.43        64.96909
730.85        64.88992
731.27         64.8085
731.69        64.72359
732.10        64.67487
732.52        64.66669
732.94        64.61655
733.36        64.51514
733.78         64.6827
734.20        64.31232
734.62        64.38727
735.04        64.73185
735.46        64.04758
735.88        64.32866
736.30        64.50406
736.72        65.07951
737.13        65.43273
737.55        65.45183
737.97        65.58646
738.39        65.76709
738.81        65.46871
739.23        64.85017
739.65        64.77193
740.06        65.16007
740.48        65.27751
740.90        65.07501
741.32        64.99594
741.74        65.08444
742.16        65.17958
742.57        65.28122
742.99        65.41417
743.41        65.52654
743.83        65.52355
744.25        65.39248
744.67        65.14417
745.08        64.89071
745.50        64.79697
745.92        64.90606
746.34         65.1645
746.75        65.44103
747.17        65.51035
747.59        65.33529
748.01        64.99239
748.42        64.61819
748.84        64.45669
749.26        64.56898
749.68         64.7906
750.09        65.03003
750.51        65.34522
750.93        65.58755
751.35        65.36928
751.76        64.82021
752.18        64.53344
752.60        64.56636
753.01        64.63611
753.43        64.65534
753.85        64.63296
754.27        64.55486
754.68         64.4472
755.10        64.37279
755.52        64.41657
755.93        64.57868
756.35        64.81491
756.77        65.12597
757.18        65.33357
757.60         65.3807
758.02        65.67005
758.43        66.17155
758.85        65.27042
759.26        65.29149
759.68        64.98138
760.10        65.03844
760.51          65.218
760.93        65.42489
761.34        65.39176
761.76        65.24001
762.18        65.28511
762.59        65.57516
763.01           65.73
763.42        65.75484
763.84        65.74478
764.26        65.71597
764.67        65.58191
765.09         65.4067
765.50        65.20879
765.92        65.04563
766.33        64.90642
766.75        64.75836
767.16        64.69914
767.58        64.68685
768.00        64.69714
768.41         64.7702
768.83        64.91512
769.24        65.08675
769.66        65.34776
770.07        65.59088
770.49         65.3552
770.90        64.83884
771.32        65.05228
771.73        65.87323
772.15        66.12679
772.56        65.76074
772.97        65.40587
773.39        65.21179
773.80        65.14871
774.22        65.23833
774.63        65.52909
775.05        65.85985
775.46        66.04007
775.88        65.98649
776.29        65.77437
776.70        65.51615
777.12        65.42313
777.53        65.55312
777.95        65.79553
778.36        66.06605
778.77        66.18903
779.19        66.14046
779.60        66.00835
780.02        65.81577
780.43        65.68927
780.84        65.68559
781.26        65.43802
781.67        65.11479
782.09        65.70165
782.50        66.86958
782.91        66.90522
783.33         65.8872
783.74        65.46263
784.15        65.71361
784.57        65.67193
784.98        65.39147
785.39        65.40603
785.81        65.73244
786.22        66.22091
786.63         66.7273
787.04        67.01755
787.46        67.04553
787.87        66.86816
788.28         66.6151
788.70        66.46348
789.11        66.44231
789.52        66.52716
789.93        66.64804
790.35        66.68042
790.76        66.59899
791.17        66.43857
791.58        66.27596
792.00        66.14402
792.41        66.07143
792.82        66.22967
793.23        66.50211
793.65        66.26495
794.06        65.74618
794.47        65.99216
794.88        66.78548
795.29        67.41466
795.71        66.93166
796.12        66.71379
796.53        66.63404
796.94        66.63753
797.35        66.75974
797.76        67.02556
798.18        67.32759
798.59        67.50983
799.00        67.50938
799.41        67.37428
799.82        67.16972
800.23        67.01341
800.64        66.93967
801.06        66.87511
801.47        66.85459
801.88        66.85046
802.29        66.84807
802.70        66.86505
803.11        66.85992
803.52         66.7553
803.93        66.56051
804.34        66.30916
804.75        66.09377
805.17        66.11235
805.58        66.43936
805.99        66.80709
806.40        67.14709
806.81        67.78565
807.22        68.45112
807.63         68.1675
808.04        67.14321
808.45        66.61083
808.86        66.70423
809.27        66.79453
809.68        66.76888
810.09        66.72743
810.50         66.6398
810.91        66.49419
811.32        66.39964
811.73        66.51844
812.14        66.87247
812.55        67.40585
812.96        67.95265
813.37          68.202
813.78        68.06741
814.19        67.66322
814.60        67.15769
815.01        66.78223
815.42        66.59628
815.83        66.52722
816.24        66.55598
816.65        66.64198
817.05        66.76196
817.46        66.91998
817.87        67.06631
818.28         67.0663
818.69        66.90292
819.10        66.58792
819.51        66.27805
819.92        66.26527
820.33        66.61102
820.74        67.22107
821.14        67.86817
821.55          68.183
821.96         68.0776
822.37        67.65871
822.78        67.11978
823.19        66.79377
823.60        66.78861
824.00        67.03374
824.41        67.35552
824.82        67.55782
825.23        67.56396
825.64        67.44986
826.04        67.30261
826.45        67.21606
826.86        67.23602
827.27        67.32068
827.68        67.42091
828.08        67.49039
828.49        67.45816
828.90         67.3626
829.31        67.25327
829.72        67.20778
830.12        67.26633
830.53        67.35071
830.94         67.3991
831.35        67.26486
831.75        66.94351
832.16         66.4805
832.57        66.01812
832.97         65.7509
833.38        65.73134
833.79        65.88029
834.20         66.1469
834.60        66.44803
835.01        66.74179
835.42        67.08423
835.82         67.4068
836.23        67.51495
836.64        67.40968
837.04        67.11173
837.45        66.84268
837.86        67.03056
838.26        67.77193
838.67        68.89681
839.08         70.0376
839.48         70.4902
839.89        70.05764
840.29        68.98315
840.70        67.78564
841.11        67.03773
841.51        66.90276
841.92        67.19865
842.33        67.73415
842.73        68.17668
843.14        68.30331
843.54         68.2696
843.95          68.194
844.35        68.30871
844.76        68.63905
845.17        69.08775
845.57        69.48756
845.98        69.55383
846.38        69.25212
846.79        68.67783
847.19        68.03922
847.60        67.64477
848.00        67.59032
848.41        67.75864
848.81        68.04472
849.22        68.18713
849.62        68.14523
850.03        67.98936
850.43        67.78394
850.84        67.56042
851.24        67.38995
851.65        67.18633
852.05        67.08629
852.46         67.2261
852.86        67.61078
853.27        68.18222
853.67        68.68195
854.07        68.86197
854.48        68.65624
854.88        68.15968
855.29        67.50169
855.69        67.05729
856.10        66.88963
856.50        66.98761
856.90        67.19022
857.31        67.24122
857.71        67.11608
858.12        66.82137
858.52        66.53553
858.92        66.43928
859.33        66.56033
859.73         66.8802
860.13        67.18008
860.54        67.12582
860.94        66.69862
861.34        66.00155
861.75        65.30511
862.15        65.09127
862.55        65.44766
862.96        66.17762
863.36         67.0703
863.76        67.67905
864.17        67.83327
864.57        67.69654
864.97        67.29259
865.38        66.67181
865.78        65.93224
866.18        65.05217
866.58        64.25336
866.99         63.9364
867.39        64.21366
867.79        64.97871
868.19        65.93053
868.60        66.56825
869.00        66.78257
869.40        66.64909
869.80        66.34373
870.21        66.22305
870.61        66.44859
871.01        66.84321
871.41        67.16409
871.81        67.07767
872.22        66.53323
872.62        65.65907
873.02        64.74406
873.42        64.26625
873.82        64.35755
874.22        64.86158
874.63        65.49318
875.03        65.81428
875.43        65.69193
875.83        65.27934
876.23        64.76089
876.63        64.41564
877.03        64.34113
877.44          64.425
877.84        64.62777
878.24        64.91151
878.64        65.17869
879.04        65.27857
879.44        65.30447
879.84        65.50607
880.24        65.87901
880.64        66.31088
881.04        66.54143
881.44        66.18863
881.84        65.21893
882.24        63.80136
882.65        62.38792
883.05        61.66169
883.45        61.79374
883.85        62.61584
884.25        63.74975
884.65        64.52872
885.05        64.73814
885.45        64.54556
885.85        64.23224
886.25        64.24304
886.65        64.67519
887.05        65.35858
887.45        66.03196
887.85        66.28529
888.25        66.02145
888.65        65.40649
889.04        64.69646
889.44        64.29984
889.84        64.30689
890.24        64.58288
890.64        64.96186
891.04        65.17611
891.44        65.13632
891.84        64.94149
892.24         64.6563
892.64         64.3586
893.04        64.10257
893.44        63.89003
893.83        63.76301
894.23        63.74606
894.63        63.86705
895.03        64.09455
895.43        64.45758
895.83        65.00029
896.23        65.66532
896.63        66.37225
897.02        66.90651
897.42        66.96686
897.82        66.51325
898.22         65.7065
898.62        64.73765
899.01        63.88388
899.41        63.27594
899.81         62.8376
900.21        62.65914
900.61        62.87211
901.00        63.44403
901.40        64.31322
901.80        65.19032
902.20        65.59776
902.59        65.44024
902.99        64.84312
903.39         64.0649
903.79        63.55577
904.18        63.44502
904.58        63.59215
904.98        63.92104
905.38        64.31996
905.77        64.72691
906.17        65.21292
906.57        65.62312
906.96        65.68575
907.36        65.35556
907.76        64.71387
908.15        64.08937
908.55        64.00099
908.95        64.55748
909.34        65.59988
909.74         66.7339
910.14        67.38523
910.53        67.35062
910.93        66.82373
911.33        66.00256
911.72        65.18291
912.12        64.56229
912.52        64.08915
912.91        63.75824
913.31         63.5788
913.70        63.54763
914.10        63.64185
914.49        63.96868
914.89        64.60191
915.29        65.51421
915.68        66.63013
916.08        67.57362
916.47        67.81272
916.87        67.26879
917.26        66.11454
917.66        64.83582
918.05        64.01641
918.45        63.81574
918.84        64.12675
919.24        64.68157
919.64        65.12577
920.03        65.33157
920.42        65.35693
920.82        65.38491
921.21        65.64513
921.61         66.1571
922.00        66.85344
922.40        67.44247
922.79        67.58416
923.19          67.186
923.58        66.42849
923.98        65.62856
924.37        65.17937
924.77         65.1845
925.16        65.46711
925.55        65.90813
925.95         66.2709
926.34        66.46129
926.74        66.54517
927.13        66.40943
927.52        65.80851
927.92        64.81868
928.31        63.53282
928.70        62.34339
929.10        61.82731
929.49        62.07989
929.89        62.88178
930.28         64.0088
930.67        64.93063
931.07        65.41269
931.46        65.67049
931.85        65.61106
932.24        65.15713
932.64        64.42181
933.03        63.39629
933.42        62.53381
933.82        62.50732
934.21         63.4109
934.60        65.09917
934.99        67.00232
935.39         68.0548
935.78        67.97933
936.17         66.9826
936.56        65.59924
936.96        64.69486
937.35        64.51569
937.74        64.80909
938.13        65.22271
938.53        65.22381
938.92        64.69008
939.31        63.86309
939.70        63.01986
940.09        62.51205
940.49         62.4022
940.88        62.59472
941.27        62.96466
941.66        63.29245
942.05        63.49646
942.44        63.65847
942.84        63.83083
943.23         64.0808
943.62        64.42118
944.01         64.7566
944.40        65.08285
944.79         65.4295
945.18        65.75472
945.57        66.03256
945.97        66.06209
946.36        65.61648
946.75        64.67088
947.14        63.42524
947.53        62.16656
947.92        61.27328
948.31        60.85394
948.70        60.80851
949.09        61.11828
949.48        61.72905
949.87        62.55046
950.26        63.55449
950.65        64.52081
951.04        65.09712
951.43        65.18278
951.82        64.83154
952.21        64.22852
952.60        63.71855
952.99        63.43282
953.38        63.32029
953.77        63.32058
954.16        63.31889
954.55        63.27612
954.94        63.22811
955.33        63.23783
955.72         63.3919
956.11        63.68969
956.50        64.08138
956.89        64.38502
957.28         64.3194
957.66        63.82668
958.05        63.04557
958.44        62.22696
958.83         61.7282
959.22        61.61962
959.61        61.80271
960.00        62.09742
960.39        62.17701
960.78        61.93501
961.16        61.46457
961.55        60.94848
961.94        60.57609
962.33        60.40929
962.72        60.41813
963.11        60.49749
963.49        60.49491
963.88        60.30667
964.27        59.98554
964.66         59.7729
965.04        60.05135
965.43        60.82295
965.82        62.02906
966.21        63.20409
966.60        63.45058
966.98        62.54052
967.37        60.87106
967.76        59.15897
968.15        58.31293
968.53        58.51079
968.92        59.51525
969.31        60.89339
969.69        61.76648
970.08        61.72731
970.47        61.04836
970.86        60.23689
971.24        60.00537
971.63        60.52266
972.02        61.61392
972.40        62.82767
972.79        63.07719
973.17        62.16743
973.56        60.49617
973.95        58.88171
974.33        58.37959
974.72        59.16764
975.11        60.91251
975.49        62.98319
975.88        64.07986
976.26        63.80363
976.65        62.51283
977.04        60.80874
977.42        59.59726
977.81        59.12969
978.19        59.12278
978.58        59.48155
978.96         60.0112
979.35        60.56779
979.74        61.25764
980.12        61.97704
980.51        62.27479
980.89        62.17575
981.28        61.74152
981.66        61.22759
982.05        61.00566
982.43        61.18869
982.82        61.66162
983.20        62.46341
983.59        63.53651
983.97        64.84507
984.35          66.323
984.74        67.57747
985.12        68.20316
985.51        68.02963
985.89        67.20568
986.28        66.11175
986.66        65.25771
987.04        64.85413
987.43        64.73177
987.81        64.81514
988.20        64.83487
988.58        64.71064
988.96         64.4701
989.35        64.11667
989.73        63.61637
990.12        62.96434
990.50        62.21785
990.88        61.33248
991.27         60.3104
991.65        59.26957
992.03        58.28445
992.42        57.67547
992.80        57.84551
993.18        58.84604
993.56        60.56078
993.95        62.49149
994.33        63.81821
994.71        64.10889
995.10        63.65749
995.48         62.8371
995.86        62.34576
996.24        62.36628
996.63        62.51651
997.01        62.90119
997.39        63.39062
997.77         63.8538
998.15         64.4842
998.54        64.79955
998.92        63.92416
999.30        61.94011
999.68        59.16349
1000.06        56.72646
1000.45        56.24548
1000.83        58.10398
1001.21        61.97199
1001.59        66.71166
1001.97        69.52914
1002.35        69.31598
1002.73        66.95796
1003.12        63.95392
1003.50        62.17995
1003.88        62.20756
1004.26        63.33726
1004.64        65.30697
1005.02         67.5054
1005.40        69.40717
1005.78        71.29172
1006.16         72.4058
1006.54        71.53702
1006.92        68.75713
1007.30         64.5489
1007.69        60.42151
1008.07        58.38212
1008.45         59.0019
1008.83        61.83849
1009.21        65.92554
1009.59        68.72772
1009.97        68.95485
1010.35        67.33244
1010.73        64.62341
1011.11        61.96694
1011.49        59.88024
1011.86        58.06871
1012.24        56.77794
1012.62        56.35767
1013.00        56.79705
1013.38        58.12017
1013.76        60.00562
1014.14        61.43703
1014.52        61.88176
1014.90        61.49804
1015.28        60.65141
1015.66        59.97591
1016.04        59.65488
1016.41        59.47929
1016.79        59.40842
1017.17        59.45763
1017.55        59.56788
1017.93        59.76066
1018.31        59.92066
1018.69        59.81153
1019.06        59.41282
1019.44        58.82131
1019.82        58.05397
1020.20        57.28751
1020.58        56.67415
1020.95        56.05669
1021.33        55.84171
1021.71         56.4331
1022.09        57.86414
1022.46        60.30672
1022.84        62.81712
1023.22        63.10591
1023.60        60.49733
1023.97        55.72476
1024.35        51.27194
1024.73        49.83324
