SpectraSmart Spectrum 2.9.0.0
--------- Device Information -----------
Spectrum Name :  反射率_0
Saving Time :  2024/04/27 00:41:01
Spectro-Module Model Name : SE2030-DUVN
Spectro-Module Serial Number : OS361AC55029948
Wavelength Start : 200
Wavelength End : 1025
Wavelength Unit : Wavelength(nm)
Spectrum Unit : Reflectance(%)
-----------Spectrum Setting ------------
Integration Time : 20ms
Average : 10
Boxcar : 0
Background removal :  enabled
linearity correction :  enabled
SC :  disabled
Intensity correction :  disabled
DWT denoise :  enabled
savitzky-golay :  disabled
FFT :  disabled
Running average :  disabled
Kalman :  disabled
High pass :  disabled
---------------BEGIN--------------------
Wavelength(nm)             Reflectance(%)
200.29               0
200.75        28.61089
201.21        31.49531
201.67        34.72036
202.13        37.03116
202.58        38.37264
203.04        39.55112
203.50         41.3164
203.96        44.77118
204.42        50.18236
204.88         56.8983
205.34        62.62221
205.80        64.13963
206.26        61.10468
206.72        54.95705
207.18        49.00023
207.64         45.8045
208.10        45.33395
208.55        47.63294
209.01        51.01297
209.47        50.12056
209.93        44.31759
210.39        38.13664
210.85        34.57535
211.31        34.88402
211.77        39.59734
212.23        52.06905
212.69        85.57287
213.14        148.8354
213.60        157.7131
214.06         121.769
214.52        93.58459
214.98        78.37687
215.44        68.70554
215.90          59.409
216.36        50.64218
216.81        43.52334
217.27        38.38326
217.73        35.42594
218.19        33.21809
218.65        28.55124
219.11        23.03217
219.57        19.37695
220.02        19.07578
220.48        23.20947
220.94        32.25079
221.40        48.01762
221.86        70.48221
222.32        86.28678
222.77        82.79913
223.23         68.2729
223.69        53.47408
224.15        44.89506
224.61        41.51765
225.06        40.45752
225.52        40.51141
225.98        40.39108
226.44        39.89319
226.90        39.62352
227.36         39.5807
227.81        39.62078
228.27        39.78092
228.73        39.71484
229.19        39.81085
229.65        40.66837
230.10        42.18966
230.56        44.19503
231.02        45.67353
231.48        45.04115
231.93        42.28925
232.39        38.53263
232.85        35.05913
233.31        33.51424
233.77          34.041
234.22        36.04395
234.68         38.7646
235.14        41.13803
235.60        42.77386
236.05        44.02723
236.51        44.88372
236.97        45.28784
237.43        45.29201
237.88        44.82515
238.34        44.28877
238.80        44.71197
239.26        46.56979
239.71        50.35603
240.17        55.80411
240.63        61.65857
241.08        66.85372
241.54          70.606
242.00        73.98057
242.46        80.16927
242.91        91.95797
243.37        110.9002
243.83        136.7677
244.28        155.8982
244.74        150.2145
245.20        122.3182
245.66        91.87236
246.11        74.60824
246.57        70.44852
247.03        74.19197
247.48        81.09121
247.94         82.9752
248.40        79.10895
248.85        73.61842
249.31        68.99174
249.77        65.76682
250.22        63.36261
250.68        60.78136
251.14        57.83061
251.59        55.40232
252.05        54.77433
252.51         56.2518
252.96        58.32412
253.42        59.70334
253.88        60.23669
254.33        59.88915
254.79        60.38358
255.25        62.96152
255.70        67.27798
256.16        72.75251
256.62        76.87824
257.07        76.01994
257.53        71.72273
257.99        66.52654
258.44         62.2578
258.90        60.72771
259.35        60.97095
259.81        62.34445
260.27        63.81356
260.72        64.21446
261.18        63.64019
261.63        62.26344
262.09        60.89557
262.55         59.8586
263.00        59.06806
263.46         58.5381
263.91        57.72934
264.37         56.3132
264.83        54.33073
265.28        52.00996
265.74        50.02806
266.19        48.90942
266.65        48.73134
267.11        49.15285
267.56        49.70098
268.02        49.62848
268.47        48.75127
268.93        47.36034
269.38        45.73231
269.84        44.35283
270.30        43.34853
270.75        42.54132
271.21        41.91398
271.66        41.39061
272.12        40.91685
272.57        40.50193
273.03        40.02181
273.48        39.24765
273.94        38.21873
274.39        36.99768
274.85        35.81597
275.31        34.86195
275.76         34.1553
276.22        33.65668
276.67        33.28102
277.13        32.99474
277.58        32.70829
278.04        32.45181
278.49         32.1142
278.95        31.64797
279.40        31.00974
279.86        30.30247
280.31        29.54929
280.77        28.89234
281.22        28.32838
281.68        27.87631
282.13         27.5139
282.59        27.28962
283.04        27.16015
283.50        27.12997
283.95        27.12447
284.41        27.03409
284.86        26.84108
285.32        26.61203
285.77        26.39643
286.22         26.3284
286.68        26.42787
287.13        26.60454
287.59        26.84016
288.04        27.06253
288.50        27.25494
288.95        27.40464
289.41        27.47844
289.86        27.36022
290.32        27.09748
290.77        26.73768
291.22        26.42516
291.68        26.35712
292.13        26.57927
292.59        27.06815
293.04        27.76608
293.50        28.58832
293.95        29.48693
294.40        30.48449
294.86        31.57952
295.31         32.7597
295.77        34.02229
296.22        35.33447
296.68        36.69107
297.13        38.08108
297.58        39.51177
298.04        40.99035
298.49         42.5155
298.95        44.10427
299.40        45.73866
299.85        47.40674
300.31        49.10252
300.76         50.7952
301.21         52.4853
301.67        54.20318
302.12        55.89882
302.58        57.58179
303.03        59.21635
303.48        60.83011
303.94        62.49631
304.39        64.26241
304.84        66.15122
305.30        68.13666
305.75         70.0993
306.20        71.94441
306.66        73.65849
307.11        75.24479
307.57        76.74509
308.02        78.12008
308.47        79.41097
308.93        80.62995
309.38        81.84325
309.83        83.26527
310.29          84.924
310.74        86.75246
311.19        88.54344
311.65        89.92536
312.10        90.79267
312.55        91.24644
313.00        91.54961
313.46         92.1208
313.91        93.03716
314.36        94.20667
314.82        95.40163
315.27        96.26409
315.72        96.68543
316.18        96.81355
316.63        96.83057
317.08         97.0629
317.53        97.59367
317.99        98.30252
318.44        99.05407
318.89        99.60321
319.35         99.8735
319.80        99.95198
320.25        99.93582
320.70        99.97598
321.16        100.1247
321.61        100.3799
322.06        100.6792
322.51        100.9338
322.97        101.1065
323.42        101.2256
323.87        101.4034
324.32        101.8386
324.78        102.5197
325.23        103.4525
325.68        104.3239
326.13        104.6287
326.59        104.2655
327.04        103.4228
327.49        102.5133
327.94        102.2204
328.39         102.708
328.85        103.7449
329.30         105.079
329.75        105.9947
330.20        106.2476
330.66        106.0119
331.11        105.5845
331.56         105.372
332.01        105.5181
332.46        105.8688
332.92        106.2622
333.37        106.5997
333.82        106.7712
334.27        106.8875
334.72        106.9881
335.17        107.1013
335.63        107.2506
336.08        107.4748
336.53        107.8311
336.98        108.4665
337.43        109.3879
337.88         110.513
338.34        111.6849
338.79        112.7588
339.24        113.5894
339.69        114.1997
340.14         114.539
340.59        114.5535
341.05        114.3156
341.50        113.8792
341.95        113.4445
342.40        113.3118
342.85        113.5596
343.30        114.1023
343.75        114.8535
344.20        115.6453
344.66        116.3843
345.11        117.0929
345.56        117.6521
346.01        117.8868
346.46        117.8063
346.91         117.485
347.36        117.1221
347.81        117.0517
348.26        117.3373
348.72        117.8491
349.17        118.4754
349.62         119.066
350.07        119.5379
350.52        119.9597
350.97        120.1487
351.42        119.8206
351.87        118.9817
352.32        117.7286
352.77        116.5025
353.22        115.9559
353.67        116.1974
354.13        117.0485
354.58        118.0356
355.03        118.3103
355.48         117.667
355.93        116.3658
356.38        114.9313
356.83         114.157
357.28        114.1949
357.73        114.7535
358.18        115.3724
358.63        115.3217
359.08        114.4146
359.53        112.9237
359.98         111.202
360.43        109.7461
360.88        108.7007
361.33         107.922
361.78         107.257
362.23        106.4783
362.68        105.5348
363.13        104.5303
363.58        103.5864
364.03        102.8607
364.48        102.3656
364.93        102.0067
365.38        101.6472
365.83        101.0919
366.28        100.2932
366.73        99.32452
367.18        98.27306
367.63        97.27063
368.08        96.36681
368.53        95.52996
368.98         94.7597
369.43        94.04909
369.88        93.38803
370.33        92.78883
370.78        92.21909
371.23        91.62362
371.68        90.98736
372.13        90.30682
372.58        89.62424
373.03        89.01292
373.48        88.47614
373.93         87.9843
374.38        87.45816
374.83        86.77858
375.28        85.93449
375.72        84.96474
376.17        84.01772
376.62        83.20811
377.07        82.57996
377.52        82.11462
377.97        81.75764
378.42        81.43048
378.87        81.10021
379.32        80.75187
379.77        80.45495
380.22        80.31015
380.67        80.30483
381.11        80.42552
381.56        80.40815
382.01        79.91875
382.46        78.94471
382.91        77.66295
383.36        76.43652
383.81        75.75359
384.26        75.68264
384.71        76.05769
385.15        76.61433
385.60        76.88695
386.05        76.73043
386.50        76.27325
386.95        75.64576
387.40        75.06072
387.85        74.59412
388.29        74.13054
388.74        73.73588
389.19        73.31485
389.64        72.85284
390.09        72.38836
390.54        71.94316
390.98        71.52883
391.43        71.19049
391.88        70.90226
392.33        70.67377
392.78        70.45234
393.23        70.21284
393.67        70.08707
394.12        70.08417
394.57        69.57061
395.02        69.07982
395.47        68.81959
395.91        68.89375
396.36        68.72799
396.81        68.34136
397.26        68.08174
397.71         67.9165
398.15        67.70175
398.60        67.51966
399.05        67.13532
399.50        66.69335
399.95        66.89325
400.39        67.52988
400.84        67.35805
401.29        66.43289
401.74        65.90777
402.18        65.85839
402.63        65.59242
403.08        65.16751
403.53        64.96616
403.97        64.99456
404.42        65.14806
404.87        65.29862
405.32         65.2362
405.76         64.9166
406.21        64.45077
406.66        63.95309
407.11        63.63383
407.55        63.57227
408.00        63.58435
408.45        63.62905
408.90         63.8616
409.34        64.09727
409.79        63.77973
410.24        63.07523
410.68        62.71035
411.13        62.74799
411.58        62.79955
412.03        62.76833
412.47        62.67398
412.92        62.47364
413.37        62.20238
413.81         61.9388
414.26        61.85025
414.71        61.93877
415.15        62.18117
415.60        62.46469
416.05        62.65977
416.49        62.72256
416.94        62.68052
417.39         62.5956
417.83         62.5525
418.28        62.58054
418.73        62.64843
419.17        62.72771
419.62        62.77862
420.07        62.77493
420.51        62.70979
420.96        62.62734
421.41        62.50588
421.85        62.32931
422.30        62.27456
422.74        62.23448
423.19         61.9123
423.64        61.38932
424.08        61.23206
424.53        61.45112
424.98         61.5998
425.42        61.65671
425.87        61.95184
426.31        62.34721
426.76        62.27503
427.21          61.786
427.65        61.39402
428.10        61.21206
428.54        61.14342
428.99        61.25159
429.44        61.40565
429.88        61.61915
430.33        62.24097
430.77        62.96525
431.22        63.18337
431.66        62.85851
432.11        62.29115
432.56        61.71783
433.00        61.53152
433.45        61.89364
433.89        62.46384
434.34        62.64413
434.78         63.7427
435.23        62.81865
435.67        61.18947
436.12        61.30764
436.57        61.28529
437.01        61.81824
437.46        62.03061
437.90        61.87254
438.35        61.33354
438.79        61.70296
439.24        61.75742
439.68        61.83421
440.13        61.98738
440.57        62.27109
441.02         62.4337
441.46        62.45308
441.91        63.09941
442.35        63.94029
442.80        63.43639
443.24        61.96035
443.69        61.87014
444.13        63.05058
444.58        63.48286
445.02        63.10087
445.47          63.073
445.91        63.42658
446.36        63.67773
446.80        63.79789
447.24         63.9149
447.69        64.00489
448.13         64.0122
448.58        63.95197
449.02        63.80859
449.47        63.64411
449.91        63.53837
450.36        63.52838
450.80        63.56871
451.25        63.64277
451.69        63.66959
452.13        63.64519
452.58        63.59033
453.02        63.51349
453.47        63.43555
453.91        63.35361
454.36        63.26121
454.80        63.15888
455.24        62.98809
455.69        62.75027
456.13        62.60667
456.58        62.57701
457.02        62.12255
457.46        61.58274
457.91        61.77379
458.35        62.45928
458.79        62.48163
459.24        61.82412
459.68        61.04354
460.13        60.43416
460.57        60.13235
461.01        60.23836
461.46        60.59925
461.90        60.99298
462.34        61.54548
462.79         60.9018
463.23        61.01793
463.68         61.3673
464.12        61.30163
464.56        60.78271
465.01        60.05325
465.45        59.35365
465.89        59.30752
466.34        59.73999
466.78        59.97974
467.22         59.9614
467.67        59.20755
468.11        59.00664
468.55        58.91834
468.99        59.20251
469.44        59.15753
469.88        58.77205
470.32        58.49604
470.77        58.36926
471.21        58.24685
471.65        58.12878
472.10        58.06692
472.54        58.04693
472.98        58.02883
473.42        57.98974
473.87        58.01415
474.31        58.03006
474.75        57.79812
475.20        57.40881
475.64        57.32225
476.08         57.5351
476.52        57.42371
476.97        56.90929
477.41        57.02852
477.85        56.99992
478.29        56.42986
478.74        57.04931
479.18        57.50956
479.62        57.01199
480.06        56.99257
480.50        57.01704
480.95        57.09179
481.39        57.20526
481.83        56.63923
482.27        56.64415
482.72         56.8487
483.16        56.54735
483.60        56.56071
484.04        56.57809
484.48        56.82046
484.93         57.1622
485.37        56.90925
485.81         56.9264
486.25        56.59661
486.69        59.35496
487.14        59.50626
487.58        56.75049
488.02        57.32556
488.46        55.96756
488.90        55.55076
489.34        57.06483
489.79        57.27852
490.23        56.73463
490.67        56.16232
491.11        55.78671
491.55        55.63201
491.99         55.6556
492.43        55.51456
492.88        55.22122
493.32        55.20328
493.76        55.38333
494.20         55.5225
494.64        55.55896
495.08         55.6255
495.52        55.70849
495.96        55.65016
496.41        55.49612
496.85        55.56779
497.29        55.70493
497.73        55.68666
498.17        54.88293
498.61        54.66808
499.05        54.85822
499.49        55.03472
499.93        54.94474
500.37        55.00003
500.82        55.15389
501.26        55.12952
501.70        55.34642
502.14        55.36239
502.58        55.32708
503.02        55.32309
503.46        55.36094
503.90        55.39604
504.34        55.39044
504.78        55.30557
505.22        55.13068
505.66        54.91565
506.10        54.73423
506.54        54.60634
506.98          54.531
507.42        54.84409
507.86        54.84817
508.30        54.94381
508.74        54.91338
509.18        54.80816
509.62        54.66256
510.06        54.54688
510.50         54.4897
510.94        54.45917
511.38         54.4561
511.82        54.48241
512.26        54.53005
512.70        54.60256
513.14        54.66793
513.58        54.67062
514.02        54.60267
514.46        54.47971
514.90        54.34668
515.34        54.27972
515.78        54.29536
516.22        54.36675
516.66        54.45802
517.10        54.51003
517.54        54.50501
517.98        54.46596
518.42        54.40129
518.86        54.32348
519.30        54.24458
519.74        54.16111
520.18        54.09817
520.62        54.09559
521.06        54.15886
521.50         54.2788
521.93        54.42081
522.37        54.50774
522.81        54.52617
523.25        54.48973
523.69        54.43221
524.13        54.41134
524.57        54.43591
525.01        54.47935
525.45        54.51094
525.89        54.48253
526.32        54.38107
526.76        54.24872
527.20        54.09644
527.64        53.95121
528.08        53.83043
528.52        53.70384
528.96        53.61025
529.40        53.66477
529.83        53.83801
530.27        53.98832
530.71         54.0671
531.15        54.11074
531.59        54.10536
532.03        54.00349
532.46        53.83871
532.90        53.73812
533.34        53.71693
533.78        53.70986
534.22        53.70132
534.66        53.73335
535.09         53.7571
535.53        53.66014
535.97        53.46361
536.41        53.33781
536.85        53.29996
537.28        53.25563
537.72        53.22393
538.16        53.27759
538.60        53.41266
539.04        53.60254
539.47        53.77969
539.91        53.87542
540.35        53.86188
540.79        53.76546
541.22        53.63085
541.66        53.54909
542.10         53.5387
542.54        53.57504
542.97        53.62329
543.41        53.65389
543.85        53.64819
544.29        53.62616
544.72        53.58963
545.16        53.57236
545.60        53.57141
546.04        53.58022
546.47         53.6018
546.91        53.64957
547.35         53.7191
547.79        53.77388
548.22        53.79697
548.66         53.8321
549.10        53.89244
549.53        53.77407
549.97           53.54
550.41         53.3387
550.84         53.2435
551.28        53.31082
551.72        53.47192
552.15        53.56268
552.59        53.57851
553.03         53.3546
553.46        53.58776
553.90        53.49342
554.34         53.2341
554.77        53.57867
555.21        53.27675
555.65        53.34278
556.08         53.4459
556.52        53.52311
556.96        53.55577
557.39         53.6385
557.83        53.73954
558.27        53.58185
558.70        53.22467
559.14        53.06103
559.57        53.09362
560.01        53.06529
560.45        53.00298
560.88        53.13462
561.32        53.42626
561.75         53.6456
562.19        53.74749
562.63        53.66885
563.06        53.46745
563.50        53.40174
563.93        53.42592
564.37        53.39416
564.80        53.32136
565.24        53.17655
565.68        52.87683
566.11        53.41997
566.55        52.89379
566.98        52.83836
567.42        52.79565
567.85        52.97821
568.29        53.35967
568.72        53.73973
569.16        54.12167
569.60        54.30623
570.03        54.45625
570.47        54.57303
570.90        54.77881
571.34        54.22861
571.77        54.60487
572.21        54.72125
572.64         54.9127
573.08        54.92245
573.51        54.36979
573.95        54.35652
574.38        54.87783
574.82        55.05708
575.25        54.72329
575.69        55.04444
576.12        54.80842
576.56        54.32826
576.99        54.43552
577.42        54.65713
577.86        54.83615
578.29        55.80382
578.73        55.83391
579.16        55.59217
579.60        54.70702
580.03        54.55981
580.47        54.63881
580.90        55.36971
581.33        55.26192
581.77         55.8476
582.20        56.07792
582.64        56.54315
583.07        55.90014
583.51        55.25967
583.94        54.61534
584.37        54.45193
584.81        54.87865
585.24        55.24493
585.68         55.3538
586.11         55.1919
586.54        55.41686
586.98        54.48322
587.41        53.70444
587.85        54.58193
588.28        54.81004
588.71        54.43032
589.15        54.22812
589.58        54.35732
590.01        53.66126
590.45        53.74933
590.88        54.46846
591.31        54.40029
591.75        53.73719
592.18        53.38371
592.61        53.59076
593.05        53.90171
593.48        54.99428
593.91         54.8345
594.35        54.91828
594.78        54.05281
595.21        53.64141
595.65        53.93156
596.08         55.1321
596.51        54.72103
596.94        54.05932
597.38        53.59671
597.81        53.76482
598.24         54.3728
598.68        53.92513
599.11        53.94397
599.54        54.93797
599.97        54.61914
600.41        54.34015
600.84        53.84488
601.27        54.25295
601.70        54.16264
602.14        54.20625
602.57        54.04514
603.00        54.00089
603.43        53.50611
603.87         54.2397
604.30        54.35353
604.73        54.44448
605.16        53.52493
605.60         53.5099
606.03        53.34123
606.46        53.53577
606.89        53.28591
607.32        53.76766
607.76        53.40191
608.19        53.65092
608.62        53.70088
609.05        53.51197
609.48        53.45833
609.92        54.13398
610.35        53.64236
610.78         53.4062
611.21        53.26846
611.64         53.3278
612.07        53.49351
612.50        53.39444
612.94          53.338
613.37        53.17844
613.80        53.29708
614.23        52.67138
614.66        52.68811
615.09        53.08733
615.52        53.32469
615.96        53.30145
616.39         53.4018
616.82        53.67817
617.25         52.9519
617.68        52.94349
618.11        52.87568
618.54        53.16944
618.97        53.09244
619.40        52.67604
619.84        52.69145
620.27        52.65263
620.70        52.82526
621.13        52.96205
621.56        52.56125
621.99        52.07383
622.42        51.88706
622.85        52.14762
623.28        52.20662
623.71        52.22752
624.14        52.33875
624.57        52.64362
625.00        52.47244
625.43        52.62786
625.86        52.52799
626.29        52.46977
626.72        52.12255
627.15        52.23398
627.58        52.19621
628.01         52.1771
628.44        52.12273
628.87        52.06438
629.30        51.88832
629.73        51.99597
630.16        52.04086
630.59        52.12209
631.02        52.20879
631.45        52.28823
631.88        52.35823
632.31         52.4031
632.74        52.40655
633.17        52.35799
633.60        52.26174
634.03        52.12717
634.46        51.95359
634.89        51.77992
635.32        51.68114
635.75        51.67492
636.18        51.68616
636.61        51.70298
637.04        51.73648
637.47        51.77472
637.89        51.80843
638.32        51.80746
638.75        51.77505
639.18        51.71299
639.61        51.62131
640.04        51.53104
640.47        51.49296
640.90        51.51801
641.33        51.59607
641.76        51.69221
642.18        51.75261
642.61        51.74387
643.04        51.68345
643.47        51.60684
643.90        51.57261
644.33        51.59275
644.76        51.65209
645.18        51.70458
645.61        51.66184
646.04        51.51931
646.47        51.31448
646.90        51.12135
647.33        51.05138
647.75         51.1095
648.18        51.29057
648.61        51.55547
649.04        51.67988
649.47        51.56134
649.89        51.96672
650.32        51.54815
650.75        51.41415
651.18        51.25051
651.61        51.33113
652.03        51.61004
652.46        51.70271
652.89        51.61371
653.32        51.59618
653.74        51.79216
654.17        51.61662
654.60        51.93349
655.03        51.76786
655.46        51.01656
655.88        51.34945
656.31        55.23551
656.74        60.35157
657.16        59.22946
657.59        57.72536
658.02        53.60319
658.45        52.82088
658.87        52.23652
659.30        52.20477
659.73        51.75107
660.15        52.73194
660.58        51.84984
661.01        51.76406
661.44        51.55542
661.86        51.35582
662.29         51.1072
662.72        51.32114
663.14         51.0413
663.57        51.01709
664.00        51.02046
664.42        51.17157
664.85        51.45996
665.27        51.79884
665.70        52.06669
666.13        52.16661
666.55        52.07792
666.98        51.76778
667.41        51.33468
667.83        51.28594
668.26        51.13091
668.69        51.24145
669.11        51.42253
669.54        51.57816
669.96         51.6671
670.39        51.82235
670.82        52.00042
671.24        51.84343
671.67        51.46951
672.09          51.473
672.52        51.80679
672.94        51.86974
673.37        51.64765
673.80        51.48315
674.22        51.42358
674.65        51.35686
675.07        51.30759
675.50        51.29454
675.92        51.31397
676.35        51.34786
676.77        51.39012
677.20        51.43676
677.62        51.48028
678.05        51.51303
678.47        51.53002
678.90        51.53128
679.32        51.52249
679.75        51.52678
680.17        51.54491
680.60        51.57486
681.02         51.6074
681.45        51.62225
681.87        51.62779
682.30        51.62321
682.72        51.63038
683.15        51.66322
683.57         51.7277
684.00        51.77531
684.42        51.82586
684.85        51.92842
685.27        52.06833
685.70        52.26678
686.12        52.44886
686.54        52.41671
686.97        52.20726
687.39        52.08526
687.82        52.06496
688.24        52.00711
688.66        51.92868
689.09        51.80925
689.51         51.9053
689.94        51.92932
690.36        51.95153
690.78        51.97719
691.21        52.01492
691.63        52.06557
692.06        52.12626
692.48        52.19739
692.90        52.24494
693.33         52.2242
693.75        52.12917
694.17        51.95323
694.60        51.76918
695.02        51.70475
695.44        51.76031
695.87        51.89774
696.29        52.04567
696.71        51.93361
697.14        51.62276
697.56        51.53835
697.98        51.69665
698.41        51.71639
698.83        51.62749
699.25        51.84345
699.68        52.24242
700.10        52.38081
700.52        52.19353
700.94        51.88251
701.37        51.58819
701.79        51.48592
702.21        51.62014
702.64        51.92057
703.06        52.27098
703.48        52.46696
703.90        52.45237
704.33        52.29607
704.75        52.07298
705.17         51.8964
705.59        51.81411
706.01        51.78771
706.44        51.81956
706.86        51.93781
707.28        52.12137
707.70        52.34211
708.12        52.55801
708.55        52.73438
708.97        52.83076
709.39        52.75294
709.81        52.54641
710.23        52.40891
710.66        52.37541
711.08        52.37086
711.50         52.3583
711.92        52.32342
712.34        52.25973
712.76        52.18634
713.19        52.11686
713.61        52.09929
714.03         52.1334
714.45        52.20745
714.87         52.3181
715.29        52.46442
715.71        52.63356
716.13         52.8091
716.56        52.95383
716.98         53.0784
717.40        53.14565
717.82        53.16094
718.24        53.10678
718.66        52.95746
719.08        52.73276
719.50        52.46652
719.92        52.23032
720.34        52.12762
720.76        52.17924
721.19        52.33622
721.61        52.57723
722.03         52.8236
722.45        53.03002
722.87        53.20025
723.29        53.29141
723.71        53.24072
724.13        53.05133
724.55         52.7539
724.97        52.42414
725.39        52.19468
725.81        52.10994
726.23        52.12449
726.65        52.21549
727.07        52.45431
727.49        52.62786
727.91         52.8928
728.33        53.15816
728.75        53.37119
729.17        53.50623
729.59        53.55774
730.01        53.55096
730.43        53.53389
730.85        53.52444
731.27        53.52091
731.69        53.49788
732.10        53.41118
732.52        53.25519
732.94         53.0585
733.36        52.90724
733.78        52.80853
734.20        52.76289
734.62        53.03014
735.04        53.56631
735.46        53.10431
735.88        53.28332
736.30        53.32674
736.72        53.68544
737.13        53.87293
737.55        53.83131
737.97        53.88758
738.39        53.99654
738.81        53.87952
739.23        53.58926
739.65        53.47452
740.06        53.53837
740.48        53.57648
740.90        53.56633
741.32        53.65405
741.74        53.80902
742.16        53.89161
742.57        53.88303
742.99        53.81368
743.41        53.71072
743.83        53.60271
744.25        53.50391
744.67         53.3937
745.08        53.31833
745.50        53.33152
745.92         53.4439
746.34         53.6421
746.75        53.83309
747.17         53.8524
747.59        53.67722
748.01        53.35643
748.42        53.02053
748.84        52.88052
749.26        52.98185
749.68        53.25538
750.09        53.57684
750.51        53.74291
750.93        53.70171
751.35        53.54002
751.76        53.31906
752.18        53.12724
752.60         52.9975
753.01        52.92252
753.43          52.881
753.85        52.85888
754.27        52.85735
754.68        52.90092
755.10        52.98962
755.52         53.1129
755.93        53.24987
756.35        53.37333
756.77        53.50246
757.18        53.61089
757.60        53.68786
758.02        53.90585
758.43        54.14196
758.85         53.8153
759.26        53.31552
759.68        53.14442
760.10        53.34953
760.51        53.85006
760.93        53.73958
761.34        53.75751
761.76        53.71011
762.18        53.76279
762.59        53.93628
763.01        54.00725
763.42         54.0017
763.84        53.99238
764.26        54.00443
764.67        53.92325
765.09        53.80462
765.50        53.76614
765.92        53.80224
766.33        53.68289
766.75        53.40662
767.16        53.31276
767.58        53.39178
768.00        53.45804
768.41         53.5307
768.83        53.69115
769.24        53.87675
769.66        54.07463
770.07        54.20639
770.49         53.9166
770.90        53.40107
771.32        53.57866
771.73        54.32302
772.15        54.52529
772.56        54.12952
772.97        53.73795
773.39        53.49815
773.80        53.38438
774.22        53.42199
774.63         53.6515
775.05        53.92345
775.46         54.0519
775.88        53.96233
776.29        53.72868
776.70        53.45816
777.12        53.34845
777.53        53.45473
777.95        53.67848
778.36        53.94687
778.77        54.11298
779.19        54.14966
779.60        54.12527
780.02        54.04717
780.43        54.00733
780.84        54.04917
781.26        53.86786
781.67        53.60347
782.09        54.09515
782.50        55.06624
782.91        55.05724
783.33         54.1612
783.74        53.82297
784.15        54.11816
784.57        54.20951
784.98         54.0981
785.39        54.16333
785.81        54.40382
786.22        54.71445
786.63        55.02031
787.04        55.20074
787.46        55.23422
787.87        55.14418
788.28        55.00312
788.70        54.89516
789.11        54.82586
789.52         54.8251
789.93        54.85673
790.35        54.76162
790.76        54.57964
791.17        54.54329
791.58         54.6322
792.00        54.58609
792.41        54.40402
792.82        54.28273
793.23        54.25641
793.65          54.167
794.06        54.12973
794.47        54.51138
794.88        55.09778
795.29         55.5218
795.71        55.18567
796.12        54.83676
796.53        54.49215
796.94        54.35891
797.35        54.51869
797.76        54.92348
798.18        55.38044
798.59        55.59315
799.00        55.46894
799.41        55.10662
799.82        54.67509
800.23        54.45232
800.64        54.51207
801.06        54.73404
801.47        55.04154
801.88        55.23548
802.29        55.24486
802.70        55.13097
803.11        54.93658
803.52         54.7267
803.93        54.55684
804.34        54.41952
804.75        54.33278
805.17        54.40851
805.58        54.69499
805.99        54.87162
806.40        54.95894
806.81        55.64983
807.22        56.60411
807.63         56.2991
808.04        54.96854
808.45        54.34273
808.86        54.57464
809.27        54.73772
809.68        54.70717
810.09        54.71016
810.50        54.71139
810.91        54.66008
811.32        54.62747
811.73          54.718
812.14        54.94669
812.55        55.28281
812.96        55.62341
813.37        55.77368
813.78        55.68099
814.19        55.41706
814.60        55.09562
815.01        54.87066
815.42        54.77943
815.83        54.77769
816.24        54.82847
816.65        54.85965
817.05        54.85036
817.46        54.81339
817.87        54.77151
818.28        54.71255
818.69        54.64104
819.10        54.54451
819.51        54.47939
819.92        54.55122
820.33        54.77167
820.74        55.10311
821.14        55.43211
821.55        55.57504
821.96        55.49169
822.37        55.23351
822.78        54.91074
823.19        54.71526
823.60        54.70918
824.00        54.86148
824.41        55.06081
824.82        55.19343
825.23        55.21238
825.64        55.16006
826.04        55.09383
826.45        55.07116
826.86         55.1243
827.27         55.2345
827.68        55.35878
828.08        55.45346
828.49        55.45731
828.90        55.39175
829.31        55.32652
829.72         55.3765
830.12        55.57927
830.53        55.85847
830.94          56.085
831.35        56.00197
831.75        55.58191
832.16        54.90921
832.57        54.21923
832.97        53.86167
833.38        53.92004
833.79        54.26208
834.20        54.75307
834.60         55.1752
835.01        55.45116
835.42        55.68344
835.82        55.83501
836.23        55.78176
836.64        55.55097
837.04        55.13643
837.45        54.78344
837.86        54.95155
838.26        55.73045
838.67        56.95895
839.08        58.20586
839.48        58.65141
839.89        58.08701
840.29        56.80808
840.70        55.39781
841.11        54.54346
841.51        54.42469
841.92        54.81565
842.33        55.50584
842.73        56.11817
843.14         56.4105
843.54        56.54681
843.95        56.57533
844.35        56.60973
844.76        56.67252
845.17        56.69624
845.57        56.66968
845.98        56.57673
846.38        56.43804
846.79        56.27621
847.19        56.11898
847.60        55.98242
848.00        55.88072
848.41        55.78265
848.81         55.7206
849.22        55.67654
849.62        55.68142
850.03        55.74612
850.43         55.8231
850.84        55.77889
851.24        55.63203
851.65        55.35792
852.05        55.18974
852.46        55.44647
852.86          56.151
853.27        57.14419
853.67         58.0388
854.07        58.40229
854.48        58.14586
854.88        57.43018
855.29        56.46695
855.69        55.75663
856.10        55.43594
856.50        55.44752
856.90         55.6467
857.31        55.79208
857.71        55.83917
858.12        55.81354
858.52        55.80489
858.92        55.85112
859.33        55.95181
859.73        56.11271
860.13        56.22464
860.54        56.14917
860.94         55.9041
861.34        55.52183
861.75        55.17767
862.15        55.18903
862.55        55.59483
862.96        56.26407
863.36        56.99237
863.76        57.36318
864.17        57.24061
864.57        56.77476
864.97        56.09269
865.38        55.40328
865.78        54.82621
866.18        54.31668
866.58        53.93103
866.99        53.76678
867.39        53.85654
867.79         54.1813
868.19        54.65856
868.60        55.12752
869.00        55.55556
869.40        55.93665
869.80        56.24553
870.21        56.44808
870.61        56.57345
871.01        56.57576
871.41        56.45181
871.81        56.20768
872.22        55.85986
872.62        55.42239
873.02        54.99183
873.42        54.71962
873.82        54.64867
874.22        54.74523
874.63         54.8949
875.03        54.92561
875.43        54.77982
875.83        54.51077
876.23        54.21333
876.63         54.0405
877.03        54.03429
877.44        54.11439
877.84        54.22693
878.24        54.33211
878.64          54.349
879.04        54.11747
879.44        53.77977
879.84        53.69697
880.24         53.8901
880.64        54.20176
881.04        54.41479
881.44        54.21744
881.84        53.56573
882.24        52.60361
882.65        51.63303
883.05        51.10844
883.45        51.15252
883.85        51.64019
884.25         52.3783
884.65        53.02422
885.05        53.43591
885.45        53.67977
885.85        53.81736
886.25        53.95723
886.65        54.12729
887.05        54.26825
887.45        54.31824
887.85        54.19944
888.25        53.90954
888.65        53.50951
889.04        53.09483
889.44        52.81942
889.84        52.71291
890.24        52.73875
890.64        52.84111
891.04        52.92126
891.44        52.94623
891.84        52.95118
892.24        52.94721
892.64        52.94678
893.04        52.96745
893.44        53.00959
893.83        53.11271
894.23        53.30174
894.63        53.58764
895.03        53.92891
895.43        54.29974
895.83         54.6613
896.23        54.97338
896.63         55.2267
897.02        55.33229
897.42        55.18328
897.82        54.78442
898.22        54.21365
898.62        53.61565
899.01        53.19598
899.41        53.02406
899.81         53.0395
900.21        53.19449
900.61        53.40174
901.00         53.6068
901.40        53.81242
901.80        53.97175
902.20        54.00918
902.59        53.92199
902.99        53.72797
903.39        53.46347
903.79        53.19793
904.18          52.961
904.58        52.74312
904.98        52.61667
905.38        52.69039
905.77        52.96609
906.17        53.42843
906.57        53.88602
906.96        54.01662
907.36        53.74658
907.76        53.18278
908.15        52.60879
908.55        52.46485
908.95        52.84787
909.34        53.60917
909.74        54.44653
910.14        54.93257
910.53         54.9134
910.93        54.56136
911.33        53.98068
911.72        53.32051
912.12        52.73136
912.52        52.18225
912.91        51.78257
913.31        51.71312
913.70        51.98736
914.10        52.52253
914.49        53.22029
914.89        53.82353
915.29        54.23918
915.68        54.52203
916.08        54.57401
916.47        54.31357
916.87        53.79277
917.26        53.04025
917.66        52.35396
918.05        52.07239
918.45        52.25988
918.84        52.86808
919.24        53.61678
919.64          54.107
920.03        54.21021
920.42        53.98944
920.82        53.68591
921.21        53.63531
921.61         53.9072
922.00        54.43012
922.40        54.94143
922.79        55.10647
923.19        54.82323
923.58        54.24975
923.98        53.66672
924.37        53.43106
924.77        53.62373
925.16        54.08231
925.55        54.62714
925.95        54.93219
926.34        54.89899
926.74        54.62685
927.13        54.16425
927.52        53.52531
927.92        52.81968
928.31        52.05328
928.70         51.4196
929.10        51.19007
929.49        51.39003
929.89        51.90299
930.28        52.62632
930.67        53.26561
931.07        53.67292
931.46        53.96919
931.85        54.03452
932.24        53.74364
932.64        53.16011
933.03        52.29719
933.42        51.52093
933.82        51.36111
934.21        51.90489
934.60        53.05793
934.99        54.38513
935.39        55.07981
935.78        54.94845
936.17        54.14201
936.56        53.13267
936.96        52.67262
937.35        52.94046
937.74        53.69715
938.13        54.51096
938.53        54.72356
938.92        54.19111
939.31        53.17131
939.70        52.04385
940.09        51.32985
940.49        51.13548
940.88        51.32634
941.27        51.70617
941.66        51.91758
942.05        51.85969
942.44         51.6939
942.84        51.55808
943.23        51.64115
943.62        51.98832
944.01        52.44793
944.40        53.00475
944.79        53.67047
945.18        54.37586
945.57        55.10758
945.97        55.54679
946.36        55.25501
946.75        54.17519
947.14         52.5517
947.53        50.89067
947.92        49.90366
948.31        49.75346
948.70        50.25155
949.09        51.13426
949.48        51.91889
949.87        52.40317
950.26        52.68858
950.65        52.82729
951.04        52.92298
951.43        53.00751
951.82        53.00397
952.21        52.87782
952.60        52.61174
952.99        52.24371
953.38        51.85643
953.77         51.5397
954.16        51.40823
954.55        51.48105
954.94        51.68648
955.33        52.02084
955.72        52.46684
956.11        52.96642
956.50        53.51817
956.89        53.87099
957.28        53.62635
957.66        52.74823
958.05        51.42636
958.44        50.11773
958.83        49.47544
959.22        49.62386
959.61        50.40009
960.00        51.44327
960.39        52.05508
960.78         52.0057
961.16         51.5006
961.55        50.88266
961.94        50.61059
962.33        50.80702
962.72        51.32924
963.11        51.98884
963.49        52.46048
963.88        52.55027
964.27        52.36538
964.66        52.10472
965.04        52.07565
965.43        52.30062
965.82        52.72943
966.21        53.09647
966.60        52.92897
966.98         52.1244
967.37        50.92887
967.76        49.78797
968.15        49.24107
968.53        49.38554
968.92        50.09927
969.31        51.02154
969.69        51.44132
970.08        51.07755
970.47        50.15569
970.86        49.22663
971.24         49.0726
971.63        49.84481
972.02        51.35041
972.40        53.03911
972.79        53.61828
973.17        52.79427
973.56        51.04233
973.95        49.20644
974.33        48.37452
974.72        48.76953
975.11        50.05138
975.49        51.77805
975.88        53.03938
976.26        53.48851
976.65        53.33818
977.04        52.85272
977.42        52.42244
977.81        52.15863
978.19        51.90876
978.58        51.73446
978.96        51.71405
979.35        51.82698
979.74        52.10532
980.12        52.49362
980.51        52.64481
980.89        52.59663
981.28        52.42268
981.66         52.2535
982.05        52.24556
982.43        52.46106
982.82        52.80511
983.20        53.41531
983.59        54.46251
983.97        55.96046
984.35        57.80238
984.74        59.40693
985.12        60.04965
985.51        59.49941
985.89        57.99895
986.28        56.21843
986.66        55.10062
987.04        54.93218
987.43        55.44471
987.81         56.2341
988.20        56.42805
988.58        55.79073
988.96        54.62738
989.35        53.31788
989.73        52.36608
990.12        51.89934
990.50        51.77989
990.88         51.8666
991.27        51.96158
991.65        51.97075
992.03        51.93988
992.42        52.00651
992.80        52.34801
993.18        53.00462
993.56        53.92903
993.95        54.76739
994.33        55.04533
994.71        54.56937
995.10        53.60825
995.48        52.62469
995.86        52.38229
996.24        53.03854
996.63        54.25303
997.01        55.84542
997.39        57.08848
997.77        57.61038
998.15        57.70785
998.54         57.2424
998.92        55.91982
999.30        53.94733
999.68        51.46338
1000.06        49.38586
1000.45        49.00826
1000.83         50.6454
1001.21        54.11612
1001.59        58.39891
1001.97         60.9572
1002.35        60.78394
1002.73         58.5853
1003.12        55.87272
1003.50         54.5983
1003.88        55.29661
1004.26        57.31395
1004.64        59.95752
1005.02        61.75976
1005.40        62.03458
1005.78         61.3694
1006.16        59.94565
1006.54        57.99315
1006.92        55.84203
1007.30        53.50004
1007.69        51.63059
1008.07        50.99591
1008.45        51.85432
1008.83        54.10861
1009.21        57.16715
1009.59        59.39648
1009.97        59.91294
1010.35         59.0222
1010.73         57.3096
1011.11        55.72167
1011.49        54.63118
1011.86        53.85489
1012.24        53.33529
1012.62        52.98762
1013.00        52.76823
1013.38        52.71984
1013.76        53.02388
1014.14        53.91268
1014.52        55.33274
1014.90        57.08734
1015.28        58.56347
1015.66        59.03584
1016.04        58.44744
1016.41        56.98103
1016.79        55.25346
1017.17        54.49623
1017.55        55.00799
1017.93        56.33693
1018.31        57.84996
1018.69        58.62318
1019.06        58.45527
1019.44        57.70776
1019.82        56.43929
1020.20        54.96854
1020.58        53.62563
1020.95        52.19367
1021.33        51.35938
1021.71         51.8538
1022.09        53.73861
1022.46         57.2825
1022.84        61.12681
1023.22        61.84084
1023.60        58.36868
1023.97         51.7659
1024.35        45.63277
1024.73        44.12741
