SpectraSmart Spectrum 2.9.0.0
--------- Device Information -----------
Spectrum Name :  反射率_0
Saving Time :  2024/04/27 00:35:04
Spectro-Module Model Name : SE2030-DUVN
Spectro-Module Serial Number : OS361AC55029948
Wavelength Start : 200
Wavelength End : 1025
Wavelength Unit : Wavelength(nm)
Spectrum Unit : Reflectance(%)
-----------Spectrum Setting ------------
Integration Time : 20ms
Average : 10
Boxcar : 0
Background removal :  enabled
linearity correction :  enabled
SC :  disabled
Intensity correction :  disabled
DWT denoise :  enabled
savitzky-golay :  disabled
FFT :  disabled
Running average :  disabled
Kalman :  disabled
High pass :  disabled
---------------BEGIN--------------------
Wavelength(nm)             Reflectance(%)
200.29               0
200.75        42.99877
201.21        44.51704
201.67        46.53975
202.13        47.99479
202.58        48.74444
203.04        49.73389
203.50         51.0803
203.96        52.37309
204.42        53.27797
204.88        53.19979
205.34        52.75066
205.80         53.5929
206.26        55.62445
206.72        57.88357
207.18        59.05616
207.64        57.75506
208.10        53.76497
208.55        47.11245
209.01        37.48198
209.47        30.93678
209.93        32.02806
210.39        37.12222
210.85        42.60897
211.31        47.63839
211.77        53.78717
212.23        65.17701
212.69        91.37052
213.14        133.7555
213.60        128.2963
214.06         95.0855
214.52         73.1328
214.98        62.82589
215.44        57.62536
215.90        54.10876
216.36        51.76001
216.81        50.23602
217.27        49.75169
217.73        51.20473
218.19        54.41901
218.65        56.47486
219.11        56.06401
219.57        54.28203
220.02        53.84508
220.48        57.62177
220.94         65.9898
221.40        80.08466
221.86        99.17493
222.32        109.9851
222.77        101.8328
223.23        84.52866
223.69          67.741
224.15        56.30132
224.61        49.40046
225.06        44.94198
225.52        42.48306
225.98        41.45559
226.44        41.45501
226.90        42.43489
227.36         43.8919
227.81        44.88073
228.27        45.17669
228.73        44.79539
229.19        44.20139
229.65        44.02692
230.10        44.27531
230.56        44.75926
231.02        44.93223
231.48        43.99427
231.93        41.99048
232.39        39.68381
232.85         37.7078
233.31        36.89009
233.77        37.27407
234.22        38.50788
234.68        40.27021
235.14        42.20731
235.60        44.13771
236.05          46.264
236.51        48.16628
236.97        48.95745
237.43         48.3785
237.88        46.56706
238.34        44.51991
238.80        44.25115
239.26        46.57398
239.71        51.93454
240.17        59.62266
240.63        66.79381
241.08        71.34908
241.54        72.63346
242.00        72.63637
242.46        76.50211
242.91         87.9375
243.37        108.4893
243.83        138.6551
244.28        164.2649
244.74        164.6259
245.20        141.0076
245.66        111.3976
246.11         91.2743
246.57        81.52604
247.03        77.06955
247.48        76.18922
247.94        76.58511
248.40        77.05522
248.85        78.04433
249.31        78.82381
249.77        77.88393
250.22        74.86697
250.68        69.03772
251.14        61.31265
251.59        56.67829
252.05        58.33515
252.51        64.67892
252.96        70.46565
253.42        71.05894
253.88        67.19999
254.33        61.15153
254.79        57.04017
255.25        58.17064
255.70        63.97278
256.16         72.5929
256.62        80.19875
257.07        81.09691
257.53        76.60732
257.99        70.34568
258.44        64.79916
258.90        62.18396
259.35        61.49582
259.81        61.92404
260.27        62.45164
260.72        62.01346
261.18        60.76968
261.63        58.95364
262.09        57.27787
262.55        55.95794
263.00        54.89863
263.46        54.09401
263.91        53.14445
264.37         51.8793
264.83         50.3012
265.28        48.53636
265.74        47.01024
266.19        45.94694
266.65        45.40604
267.11        45.16315
267.56        45.00325
268.02        44.59466
268.47        43.85311
268.93        42.93793
269.38        41.88779
269.84        40.81492
270.30        39.76792
270.75        38.70011
271.21        37.78064
271.66        37.21686
272.12         37.0111
272.57        37.05785
273.03        37.08936
273.48        36.66023
273.94        35.74539
274.39         34.4959
274.85        33.21504
275.31        32.19082
275.76        31.48133
276.22        31.01322
276.67        30.70412
277.13        30.52298
277.58        30.37296
278.04        30.27397
278.49        30.09971
278.95        29.76887
279.40        29.22784
279.86         28.5845
280.31        27.85032
280.77        27.14869
281.22        26.49051
281.68        25.90799
282.13        25.42881
282.59        25.16122
283.04        25.07375
283.50        25.15261
283.95         25.2804
284.41        25.27476
284.86         25.0955
285.32        24.82015
285.77        24.54283
286.22        24.45795
286.68        24.59563
287.13        24.85463
287.59         25.1556
288.04        25.33719
288.50        25.37704
288.95        25.30076
289.41         25.1754
289.86         25.0343
290.32        24.93638
290.77        24.87015
291.22        24.85943
291.68         24.9248
292.13         25.0762
292.59        25.34604
293.04        25.76829
293.50        26.40423
293.95        27.24554
294.40        28.26587
294.86        29.40393
295.31        30.55677
295.77         31.6976
296.22        32.83248
296.68        33.99313
297.13        35.22075
297.58        36.54015
298.04        37.94374
298.49        39.41842
298.95        40.96112
299.40        42.55427
299.85        44.20253
300.31        45.90897
300.76        47.65714
301.21        49.44365
301.67        51.27514
302.12         53.1031
302.58        54.93957
303.03        56.73748
303.48        58.51771
303.94        60.30468
304.39        62.07618
304.84        63.85848
305.30        65.66465
305.75        67.45438
306.20        69.25102
306.66        71.06277
307.11        72.84623
307.57        74.59579
308.02        76.20147
308.47        77.67342
308.93        79.04476
309.38        80.35952
309.83        81.79707
310.29        83.39156
310.74        85.08595
311.19        86.73964
311.65          88.094
312.10        89.06539
312.55        89.71976
313.00        90.24796
313.46        90.95628
313.91        91.89569
314.36        93.00873
314.82        94.11077
315.27        94.91595
315.72        95.33846
316.18        95.49995
316.63         95.5658
317.08        95.83698
317.53        96.39075
317.99        97.12685
318.44        97.90925
318.89        98.48648
319.35        98.78545
319.80        98.88933
320.25        98.91953
320.70        99.07108
321.16        99.39341
321.61        99.85741
322.06        100.3517
322.51        100.7062
322.97        100.8648
323.42        100.8925
323.87        100.9243
324.32        101.1964
324.78        101.7242
325.23        102.5041
325.68        103.2813
326.13        103.6485
326.59        103.5086
327.04        103.0105
327.49        102.4491
327.94         102.325
328.39        102.7573
328.85        103.5601
329.30        104.5617
329.75         105.207
330.20        105.3195
330.66        105.0387
331.11        104.6362
331.56        104.4699
332.01         104.665
332.46        105.0953
332.92        105.5921
333.37         106.034
333.82        106.2988
334.27        106.4764
334.72        106.6234
335.17        106.8075
335.63        107.0585
336.08        107.4137
336.53        107.8725
336.98        108.4846
337.43        109.2485
337.88        110.1171
338.34        111.0562
338.79        112.1252
339.24        113.2252
339.69        114.3144
340.14        115.1938
340.59        115.5663
341.05        115.4323
341.50        114.9093
341.95        114.3029
342.40          114.08
342.85        114.3706
343.30         115.048
343.75        115.9585
344.20        116.8292
344.66        117.5411
345.11         118.152
345.56        118.6317
346.01        118.9375
346.46        119.0943
346.91         119.124
347.36        119.0985
347.81        119.1573
348.26        119.3357
348.72        119.5852
349.17         119.927
349.62        120.4217
350.07         121.041
350.52         121.777
350.97        122.3798
351.42        122.4502
351.87        121.9398
352.32        120.9772
352.77        119.9718
353.22        119.5306
353.67        119.7716
354.13        120.5244
354.58        121.4023
355.03        121.7095
355.48        121.2684
355.93        120.2882
356.38           119.2
356.83        118.6523
357.28        118.7646
357.73        119.2987
358.18        119.8388
358.63        119.7267
359.08        118.8104
359.53        117.3422
359.98        115.6897
360.43        114.3762
360.88        113.5378
361.33        113.0136
361.78        112.6085
362.23        112.0227
362.68        111.1798
363.13        110.2012
363.58        109.2125
364.03        108.3844
364.48        107.7463
364.93        107.2075
365.38        106.6772
365.83        106.0329
366.28        105.2462
366.73        104.3793
367.18        103.4709
367.63         102.569
368.08        101.7013
368.53        100.8551
368.98        100.0716
369.43        99.41251
369.88        98.88252
370.33        98.46998
370.78        98.09357
371.23        97.61948
371.68        97.01268
372.13        96.29373
372.58        95.55741
373.03        94.96181
373.48        94.52827
373.93        94.19591
374.38        93.83725
374.83        93.25517
375.28         92.4207
375.72        91.40542
376.17        90.39028
376.62        89.53052
377.07        88.88634
377.52        88.42201
377.97        88.09416
378.42        87.84297
378.87        87.62762
379.32        87.42284
379.77        87.25381
380.22         87.1562
380.67        87.10523
381.11        87.10537
381.56        86.93233
382.01        86.33321
382.46        85.32757
382.91        84.08133
383.36        82.91746
383.81        82.26652
384.26        82.18098
384.71        82.49765
385.15        83.00662
385.60        83.32748
386.05         83.3232
386.50        83.09457
386.95        82.65085
387.40         82.0238
387.85         81.2826
388.29        80.39333
388.74         79.6052
389.19         79.0536
389.64        78.76292
390.09        78.69823
390.54        78.73697
390.98        78.64554
391.43        78.39587
391.88        78.02522
392.33        77.65313
392.78        77.39375
393.23        77.25103
393.67        77.30665
394.12        77.45943
394.57        77.01387
395.02        76.12796
395.47        75.78177
395.91        75.96803
396.36        75.81664
396.81        75.34578
397.26        75.08789
397.71         75.0265
398.15        74.92883
398.60        74.87275
399.05        74.65945
399.50         74.3655
399.95        74.56038
400.39        75.05926
400.84        74.70069
401.29        73.61465
401.74        73.09351
402.18        73.18273
402.63        72.93781
403.08          72.422
403.53        72.23769
403.97        72.39102
404.42        72.64206
404.87        72.83341
405.32          72.784
405.76        72.43939
406.21        71.88909
406.66        71.31003
407.11        70.98965
407.55        71.01414
408.00        71.26995
408.45        71.60758
408.90        71.74131
409.34        71.56756
409.79        71.15472
410.24        70.68058
410.68        70.40936
411.13        70.40762
411.58        70.58211
412.03        70.77768
412.47        70.75069
412.92        70.42722
413.37        69.93005
413.81        69.44651
414.26        69.30731
414.71        69.53996
415.15        70.06686
415.60         70.6719
416.05        71.05313
416.49        71.11044
416.94        70.92563
417.39        70.63951
417.83        70.45691
418.28        70.44931
418.73        70.55227
419.17        70.71408
419.62        70.85853
420.07         70.9399
420.51        70.95968
420.96        70.96905
421.41        70.93571
421.85        70.83146
422.30        70.86256
422.74        70.89349
423.19        70.52999
423.64        69.89066
424.08        69.73152
424.53        70.04741
424.98        70.22812
425.42        70.24468
425.87        70.48476
426.31        70.86723
426.76        70.91945
427.21        70.68722
427.65        70.54691
428.10         70.5058
428.54          70.509
428.99        70.61827
429.44        70.44835
429.88        70.22248
430.33        71.08666
430.77        72.54064
431.22        72.96532
431.66        72.33782
432.11        71.58122
432.56        71.01633
433.00        70.69715
433.45        70.84436
433.89        71.62799
434.34        72.25745
434.78        73.69141
435.23        71.72314
435.67        70.75746
436.12        71.16598
436.57        71.55545
437.01        72.06497
437.46        72.20155
437.90        71.98236
438.35        71.28638
438.79        71.25612
439.24        71.17618
439.68        71.31184
440.13        71.85915
440.57        72.67841
441.02        72.71346
441.46        72.11338
441.91        72.80214
442.35        74.23405
442.80        73.93895
443.24        72.32291
443.69        72.28778
444.13        73.63835
444.58        74.44144
445.02        73.74236
445.47        73.51157
445.91        73.64944
446.36        73.87553
446.80         74.1811
447.24        74.69349
447.69        75.24929
448.13        75.37141
448.58        75.12096
449.02        74.98402
449.47        75.01633
449.91        74.90583
450.36        74.70372
450.80        74.59705
451.25        74.62129
451.69        74.65688
452.13        74.70982
452.58        74.81337
453.02         74.9159
453.47        74.93735
453.91        74.84875
454.36        74.66413
454.80         74.4331
455.24        74.18755
455.69         73.9531
456.13        73.85277
456.58        73.86562
457.02        73.41943
457.46         72.7477
457.91         72.8539
458.35        73.47788
458.79        73.44225
459.24        72.77352
459.68        71.97194
460.13        71.32012
460.57        71.15182
461.01        71.62125
461.46        71.53676
461.90        72.39143
462.34        73.01916
462.79        72.49171
463.23         72.5343
463.68        72.66631
464.12        72.41896
464.56        71.78287
465.01         71.1115
465.45        70.54777
465.89        70.32732
466.34        70.35917
466.78        70.55462
467.22        70.92626
467.67         70.0042
468.11        70.43752
468.55        70.21314
468.99        70.11755
469.44        69.96377
469.88        69.78979
470.32        69.67709
470.77        69.61436
471.21        69.59209
471.65         69.5879
472.10        69.61205
472.54        69.63383
472.98        69.57866
473.42        69.43067
473.87        69.33937
474.31        69.23866
474.75        68.85089
475.20        68.34612
475.64        68.20081
476.08         68.5719
476.52        68.62267
476.97        68.35726
477.41        68.25306
477.85        68.37201
478.29        68.17297
478.74        67.97292
479.18        68.45788
479.62        68.38902
480.06        68.49068
480.50        68.32061
480.95         68.2765
481.39        68.41352
481.83        68.00681
482.27         67.6628
482.72        68.50664
483.16        68.11006
483.60        67.89975
484.04        68.22791
484.48        68.28523
484.93        68.26616
485.37        68.16388
485.81        67.94365
486.25        67.49053
486.69        69.60432
487.14        70.09589
487.58        67.95272
488.02        68.21867
488.46        67.26025
488.90        67.36411
489.34        68.68842
489.79        69.30079
490.23        68.53596
490.67        67.73447
491.11        66.99821
491.55        66.81398
491.99        67.10424
492.43        67.05508
492.88        66.66383
493.32        66.60267
493.76        66.87508
494.20         67.0825
494.64        67.18098
495.08        67.29766
495.52        67.40669
495.96        67.40475
496.41         67.2924
496.85        67.24242
497.29        67.15842
497.73         67.0432
498.17         66.1756
498.61        66.23388
499.05        66.84122
499.49        67.04779
499.93        66.60494
500.37        66.52003
500.82        66.74256
501.26        66.85763
501.70         66.8389
502.14        66.82764
502.58        66.86044
503.02        66.95361
503.46        67.11047
503.90        67.31375
504.34        67.45988
504.78        67.41673
505.22        67.16682
505.66        66.69654
506.10        66.19318
506.54        66.07627
506.98        66.30642
507.42        66.59174
507.86        66.57836
508.30        66.58765
508.74        66.74336
509.18        66.67907
509.62        66.50333
510.06        66.38756
510.50        66.36387
510.94        66.36578
511.38        66.38832
511.82        66.43509
512.26        66.49766
512.70        66.58878
513.14        66.67589
513.58        66.69711
514.02        66.64449
514.46        66.53302
514.90        66.41736
515.34        66.38995
515.78        66.46539
516.22        66.60721
516.66        66.75475
517.10        66.80989
517.54        66.74883
517.98        66.61147
518.42        66.42931
518.86        66.25247
519.30        66.10656
519.74        65.97732
520.18        65.89254
520.62        65.89305
521.06        65.98165
521.50        66.15513
521.93        66.35346
522.37        66.45332
522.81        66.43441
523.25        66.31635
523.69        66.18157
524.13        66.16578
524.57        66.28845
525.01        66.49884
525.45        66.69469
525.89        66.71128
526.32        66.51163
526.76        66.18335
527.20        65.81841
527.64        65.56253
528.08        65.46071
528.52        65.46452
528.96        65.55116
529.40        65.68513
529.83        65.83607
530.27        66.01733
530.71        66.17554
531.15        66.23105
531.59        66.17118
532.03        66.01187
532.46        65.80371
532.90         65.6796
533.34        65.65927
533.78        65.67419
534.22        65.68723
534.66        65.71938
535.09        65.70652
535.53        65.51689
535.97        65.20524
536.41        65.02563
536.85        65.00711
537.28        65.02171
537.72        65.05528
538.16        65.13601
538.60         65.2482
539.04        65.38101
539.47        65.49616
539.91        65.57771
540.35        65.60398
540.79        65.58077
541.22        65.52528
541.66        65.48861
542.10        65.47809
542.54        65.48763
542.97        65.48913
543.41        65.46978
543.85        65.41461
544.29        65.33495
544.72        65.25267
545.16        65.22765
545.60        65.25832
546.04        65.37452
546.47        65.52589
546.91        65.56408
547.35        65.51402
547.79        65.50932
548.22        65.57317
548.66        65.71989
549.10        65.92061
549.53        65.87033
549.97        65.64404
550.41        65.23561
550.84        65.26113
551.28        65.24082
551.72        65.26357
552.15        65.37201
552.59        65.61691
553.03        65.07769
553.46        65.70219
553.90        65.60838
554.34        65.32495
554.77        65.59928
555.21        65.19994
555.65        65.28269
556.08        65.42312
556.52         65.5097
556.96        65.49225
557.39        65.53934
557.83        65.62115
558.27        65.41181
558.70        64.99667
559.14        64.82533
559.57        64.89836
560.01        64.97562
560.45        65.03397
560.88         65.1456
561.32         65.2999
561.75        65.47078
562.19        65.62155
562.63        65.47654
563.06        65.14666
563.50        65.17908
563.93        65.46601
564.37        65.57251
564.80        65.48613
565.24        65.28318
565.68        64.87856
566.11        65.47972
566.55        64.77723
566.98        64.68196
567.42        64.62931
567.85        64.91357
568.29        65.42389
568.72        65.75201
569.16         65.9676
569.60        65.98586
570.03        66.01299
570.47        66.44075
570.90        66.41859
571.34        65.78346
571.77        66.40498
572.21        66.33835
572.64        66.03011
573.08        66.80019
573.51        65.99695
573.95        66.22001
574.38         66.7223
574.82        66.81149
575.25        66.44281
575.69        66.50333
576.12        66.44161
576.56        65.57906
576.99        65.64267
577.42        66.26617
577.86        66.27438
578.29        67.29684
578.73        67.04797
579.16        66.83233
579.60         66.2524
580.03        65.87415
580.47        65.86535
580.90        67.05104
581.33        66.93993
581.77        67.21485
582.20        67.24325
582.64        67.43113
583.07        66.82887
583.51        66.34595
583.94        66.00047
584.37        66.08026
584.81        66.61266
585.24        66.77885
585.68        66.43935
586.11        66.73798
586.54        66.57167
586.98         65.7001
587.41        65.35735
587.85        66.25809
588.28        66.11765
588.71        65.74981
589.15        65.84528
589.58        66.01349
590.01        65.65558
590.45        65.63791
590.88        66.42003
591.31        66.30499
591.75          65.662
592.18        65.15657
592.61        65.05051
593.05        65.85654
593.48        66.83817
593.91        66.85078
594.35        66.25391
594.78        65.46777
595.21         64.8903
595.65          65.328
596.08        66.71453
596.51        66.53461
596.94        65.99972
597.38        65.54861
597.81        65.51168
598.24        66.39658
598.68        65.56117
599.11         65.2952
599.54         66.7339
599.97        66.36959
600.41        66.04868
600.84        65.42023
601.27        65.87907
601.70         65.7704
602.14        65.88961
602.57        65.67075
603.00        65.54865
603.43        64.82552
603.87        65.94579
604.30        66.27055
604.73        65.91517
605.16        65.43193
605.60        65.21391
606.03        65.09647
606.46        65.15966
606.89        65.20322
607.32        65.78275
607.76        65.23697
608.19        65.74079
608.62        65.56565
609.05        65.41248
609.48        65.30106
609.92        66.14381
610.35        65.60062
610.78        65.30228
611.21         65.2637
611.64        65.22787
612.07        65.45924
612.50        65.40303
612.94        65.35713
613.37        65.13551
613.80        65.37307
614.23        64.57889
614.66        64.61653
615.09        65.00851
615.52        65.21535
615.96        65.11709
616.39        65.40373
616.82        65.44941
617.25        65.12066
617.68        65.02931
618.11        65.01292
618.54        65.23035
618.97        65.16264
619.40        64.84383
619.84        64.69889
620.27        64.66947
620.70        64.71754
621.13        64.74198
621.56        64.38622
621.99        63.77473
622.42         63.5949
622.85        63.86698
623.28        63.63154
623.71        64.14516
624.14        64.30848
624.57        64.30547
625.00        64.32816
625.43        64.34204
625.86         64.2279
626.29        64.07137
626.72        63.73445
627.15        64.01324
627.58        64.11719
628.01        64.29675
628.44        64.34313
628.87        64.39927
629.30        63.69784
629.73        63.85984
630.16        64.20828
630.59        63.94846
631.02        64.17511
631.45         64.4577
631.88        64.64396
632.31        64.66962
632.74        64.61301
633.17        64.50328
633.60        64.35394
634.03        64.19167
634.46         64.0126
634.89        63.83872
635.32        63.71125
635.75        63.65107
636.18         63.6096
636.61        63.59498
637.04        63.62774
637.47        63.69921
637.89        63.80328
638.32        63.87449
638.75        63.86253
639.18        63.75712
639.61        63.57449
640.04        63.38206
640.47        63.28769
640.90        63.31758
641.33         63.4486
641.76        63.61465
642.18         63.7103
642.61        63.68634
643.04        63.57952
643.47        63.45988
643.90        63.44115
644.33        63.54349
644.76        63.72524
645.18        63.90365
645.61        63.92898
646.04        63.78019
646.47        63.51788
646.90        63.22986
647.33          63.043
647.75        62.96796
648.18        63.02586
648.61        63.21179
649.04        63.25005
649.47        63.06703
649.89        63.75642
650.32         63.5581
650.75        63.53995
651.18        63.24225
651.61        63.18125
652.03         63.4021
652.46        63.70232
652.89        63.93266
653.32        63.91573
653.74        63.88932
654.17        63.00797
654.60        63.75778
655.03        63.65826
655.46        63.47366
655.88        63.50564
656.31         67.3227
656.74        70.44202
657.16        68.98268
657.59        67.79955
658.02        65.04202
658.45        64.89667
658.87        64.13142
659.30        63.79541
659.73        63.64335
660.15        64.70473
660.58        63.76373
661.01        63.58538
661.44        63.30204
661.86         63.0868
662.29        62.88205
662.72        63.35046
663.14        63.21844
663.57         63.1145
664.00        62.81607
664.42         62.8634
664.85        63.27423
665.27        63.72987
665.70        64.05484
666.13         64.1795
666.55        64.06748
666.98        63.67311
667.41        63.11264
667.83        62.99471
668.26        62.72241
668.69        62.77236
669.11        62.92595
669.54        63.10101
669.96        63.25676
670.39        63.55482
670.82        63.77607
671.24          63.822
671.67        63.67828
672.09        63.62166
672.52        63.68182
672.94        63.65305
673.37        63.55289
673.80        63.50877
674.22        63.53316
674.65        63.53791
675.07        63.53202
675.50        63.52933
675.92        63.52429
676.35        63.49231
676.77        63.43327
677.20         63.3484
677.62        63.26145
678.05        63.21279
678.47        63.20932
678.90        63.24704
679.32        63.29799
679.75        63.32469
680.17        63.31248
680.60        63.28766
681.02        63.27771
681.45        63.28452
681.87        63.34156
682.30        63.50904
682.72         63.7434
683.15        63.84414
683.57         63.8089
684.00        63.74493
684.42        63.71043
684.85        63.73539
685.27        63.82449
685.70        64.00392
686.12        64.17486
686.54        64.20398
686.97        63.94812
687.39        63.76766
687.82        63.66022
688.24        63.56372
688.66         63.4852
689.09        63.51194
689.51        63.62693
689.94        63.72314
690.36        63.78565
690.78         63.8252
691.21        63.86459
691.63         63.9323
692.06        64.03348
692.48        64.16045
692.90        64.25292
693.33        64.22524
693.75        64.06688
694.17        63.78294
694.60        63.49476
695.02        63.41054
695.44        63.54235
695.87        63.82282
696.29        64.12915
696.71        64.09043
697.14        63.76458
697.56         63.6313
697.98        63.73489
698.41         63.7612
698.83        63.70579
699.25        63.81426
699.68        63.99279
700.10        64.02507
700.52        63.86449
700.94        63.59206
701.37        63.32518
701.79        63.25645
702.21        63.41774
702.64        63.72773
703.06        64.07571
703.48        64.26471
703.90        64.24011
704.33        64.06871
704.75        63.82047
705.17        63.60039
705.59        63.45924
706.01        63.36502
706.44        63.33712
706.86        63.43832
707.28        63.65269
707.70        63.92469
708.12        64.19513
708.55        64.44249
708.97        64.59943
709.39        64.48105
709.81         64.1664
710.23        64.00692
710.66        64.05494
711.08        64.15575
711.50        64.23972
711.92         64.2766
712.34        64.24739
712.76        64.17868
713.19        64.08647
713.61        64.02953
714.03        64.01472
714.45         64.0331
714.87        64.09847
715.29        64.23589
715.71        64.43587
716.13        64.67268
716.56        64.89165
716.98        65.08633
717.40        65.20185
717.82        65.24923
718.24        65.20082
718.66        65.01681
719.08        64.72222
719.50        64.35947
719.92        64.03217
720.34        63.89363
720.76        63.97404
721.19        64.20668
721.61        64.55021
722.03        64.87327
722.45        65.11033
722.87        65.28923
723.29          65.374
723.71        65.24363
724.13        65.02285
724.55         64.6517
724.97        64.25107
725.39        63.97298
725.81         63.8678
726.23        63.87845
726.65        63.97697
727.07        64.25299
727.49         64.4454
727.91        64.74828
728.33        65.04169
728.75        65.24698
729.17        65.33607
729.59        65.31055
730.01        65.22823
730.43        65.19297
730.85        65.22866
731.27        65.30613
731.69        65.36854
732.10        65.32285
732.52        65.15518
732.94        64.92223
733.36        64.70842
733.78        64.52329
734.20        64.38577
734.62        64.51622
735.04        64.95476
735.46        64.55482
735.88         65.2074
736.30        65.36593
736.72        65.58318
737.13        65.76491
737.55        65.84908
737.97         65.9922
738.39        66.11068
738.81        65.78389
739.23        65.17654
739.65        65.15376
740.06        65.62483
740.48        65.80192
740.90        65.62727
741.32         65.5621
741.74        65.65804
742.16        65.75993
742.57        65.86997
742.99        66.01203
743.41         66.1179
743.83        66.06702
744.25        65.84637
744.67        65.48007
745.08        65.11383
745.50        64.96397
745.92        65.08842
746.34        65.42276
746.75        65.80109
747.17        65.93949
747.59        65.77936
748.01        65.40811
748.42        64.99463
748.84        64.80893
749.26        64.91373
749.68        65.21336
750.09        65.56616
750.51        65.74529
750.93        65.69258
751.35        65.51424
751.76        65.26802
752.18        65.03284
752.60        64.84084
753.01        64.68736
753.43        64.57246
753.85        64.51634
754.27        64.53144
754.68        64.65668
755.10         64.8458
755.52        64.98427
755.93        65.04164
756.35        65.06779
756.77        65.17722
757.18         65.3102
757.60        65.44918
758.02        66.04811
758.43        66.88567
758.85        66.01283
759.26        65.46611
759.68        64.89565
760.10        65.00311
760.51        65.22621
760.93        65.45714
761.34        65.74448
761.76         65.9535
762.18        65.89182
762.59        65.71596
763.01        65.49403
763.42        66.04543
763.84        66.16022
764.26        66.05939
764.67        66.12937
765.09        66.32613
765.50        66.16304
765.92        65.73197
766.33        65.41035
766.75        65.21103
767.16        65.10439
767.58        65.08303
768.00        65.14349
768.41        65.30891
768.83        65.72474
769.24        66.21361
769.66        66.32954
770.07        66.04798
770.49        65.69295
770.90        65.43811
771.32         65.6815
771.73        66.29638
772.15        66.50408
772.56        66.25949
772.97        66.00048
773.39         65.8382
773.80        65.75834
774.22        65.77219
774.63        65.92745
775.05         66.1029
775.46        66.17504
775.88        66.08123
776.29         65.8852
776.70         65.6708
777.12         65.5954
777.53        65.70406
777.95        65.90796
778.36        66.14104
778.77        66.25563
779.19        66.23267
779.60        66.14283
780.02        66.00648
780.43        65.93387
780.84        65.97527
781.26        65.81572
781.67        65.59368
782.09        66.14083
782.50        67.16804
782.91        67.19936
783.33        66.32216
783.74        65.97372
784.15        66.22309
784.57        66.28991
784.98        66.17903
785.39        66.13734
785.81        66.23494
786.22        66.68512
786.63        67.33751
787.04        67.65938
787.46        67.59905
787.87          67.394
788.28        67.16905
788.70        67.00579
789.11        66.93159
789.52        66.96462
789.93        67.05028
790.35        67.05701
790.76        66.97784
791.17        66.90264
791.58         66.8797
792.00        66.82172
792.41        66.73492
792.82        66.88996
793.23        67.18549
793.65        66.83508
794.06        66.11348
794.47        66.42738
794.88        67.52252
795.29        67.87171
795.71        67.36557
796.12        66.92184
796.53        66.71156
796.94        66.48619
797.35        66.39327
797.76        66.86205
798.18        67.66675
798.59        68.09414
799.00        68.00983
799.41        67.73989
799.82        67.42778
800.23        67.20401
800.64        67.13466
801.06         67.1377
801.47        67.19667
801.88        67.20309
802.29        67.12171
802.70        66.99583
803.11        66.84286
803.52        66.68016
803.93        66.54496
804.34         66.4435
804.75        66.40401
805.17        66.54787
805.58        66.92918
805.99        67.22086
806.40        67.42433
806.81        68.18819
807.22        69.17068
807.63        68.89378
808.04        67.60184
808.45        67.00068
808.86        67.24778
809.27        67.44859
809.68         67.4463
810.09        67.39764
810.50         67.2631
810.91         67.0154
811.32        66.80774
811.73        66.87441
812.14        67.25218
812.55        67.86774
812.96        68.51332
813.37        68.79529
813.78        68.60268
814.19        68.08247
814.60        67.43465
815.01        66.92957
815.42        66.63805
815.83        66.47382
816.24        66.42468
816.65        66.46668
817.05        66.58231
817.46        66.77943
817.87        66.98586
818.28        67.02815
818.69        66.88052
819.10        66.55876
819.51        66.24416
819.92        66.27667
820.33        66.72163
820.74         67.4584
821.14        68.22159
821.55        68.58292
821.96         68.4437
822.37        67.94178
822.78        67.28664
823.19        66.83775
823.60        66.72388
824.00        66.86478
824.41        67.13657
824.82         67.4264
825.23        67.65829
825.64        67.87277
826.04        68.04672
826.45        68.09346
826.86        68.01898
827.27        67.84093
827.68        67.59682
828.08        67.39576
828.49        67.22881
828.90        67.09131
829.31        67.03626
829.72        67.14141
830.12        67.42629
830.53        67.81687
830.94        68.16335
831.35        68.16065
831.75        67.76392
832.16        67.05042
832.57        66.26974
832.97         65.8002
833.38        65.74494
833.79        65.97855
834.20        66.37301
834.60        66.71863
835.01        66.94026
835.42        67.13565
835.82        67.29452
836.23        67.31913
836.64        67.23595
837.04          67.026
837.45        66.85394
837.86        67.06217
838.26        67.72326
838.67        68.69968
839.08        69.66463
839.48        69.98367
839.89        69.49792
840.29        68.44226
840.70        67.32008
841.11         66.6872
841.51        66.69542
841.92        67.15225
842.33        67.88377
842.73        68.57678
843.14        68.99096
843.54        69.26928
843.95        69.42475
844.35        69.53587
844.76        69.61246
845.17        69.60181
845.57        69.52116
845.98        69.39159
846.38        69.24751
846.79        69.09808
847.19        68.94807
847.60         68.7695
848.00        68.57433
848.41        68.35064
848.81        68.16278
849.22        68.03085
849.62         68.0057
850.03        68.07686
850.43        68.19898
850.84        68.22973
851.24        68.18427
851.65        68.02639
852.05         67.9604
852.46         68.2289
852.86        68.84725
853.27        69.68868
853.67        70.41089
854.07        70.66817
854.48         70.3835
854.88        69.69968
855.29        68.79589
855.69        68.14179
856.10        67.83848
856.50        67.84201
856.90        68.00407
857.31        68.08247
857.71        68.04401
858.12        67.91069
858.52        67.76301
858.92        67.60921
859.33        67.45236
859.73        67.31775
860.13        67.16969
860.54        66.98927
860.94        66.82336
861.34         66.6712
861.75        66.59185
862.15        66.71755
862.55        67.03577
862.96        67.45588
863.36        67.89972
863.76        68.15327
864.17        68.13931
864.57        67.95181
864.97        67.59389
865.38        67.08488
865.78        66.49904
866.18        65.84116
866.58        65.28204
866.99        65.11578
867.39        65.42389
867.79        66.10824
868.19        66.94138
868.60        67.54617
869.00        67.84768
869.40        67.90539
869.80        67.81811
870.21        67.79224
870.61        67.95052
871.01         68.1584
871.41        68.30406
871.81        68.24171
872.22        67.94373
872.62        67.47674
873.02        66.97427
873.42        66.64089
873.82        66.54791
874.22        66.64835
874.63        66.82026
875.03        66.88661
875.43        66.78471
875.83        66.56193
876.23        66.33953
876.63        66.30714
877.03        66.49936
877.44         66.8225
877.84        67.13862
878.24        67.23289
878.64        67.01502
879.04        66.43946
879.44        65.76144
879.84        65.46767
880.24        65.62303
880.64        66.04969
881.04        66.47533
881.44        66.47963
881.84        65.97279
882.24        65.11489
882.65        64.21612
883.05        63.74754
883.45        63.82998
883.85        64.31696
884.25        64.98575
884.65        65.45587
885.05        65.59874
885.45        65.53072
885.85         65.3696
886.25        65.29481
886.65        65.36136
887.05        65.49244
887.45        65.64251
887.85        65.75371
888.25        65.79615
888.65        65.79546
889.04        65.75174
889.44        65.68478
889.84        65.58894
890.24        65.45797
890.64        65.29454
891.04        65.11297
891.44        64.92783
891.84        64.75601
892.24        64.61449
892.64        64.51011
893.04        64.46509
893.44        64.51398
893.83        64.67254
894.23        64.91079
894.63        65.22775
895.03        65.56252
895.43        65.97065
895.83        66.55746
896.23        67.28043
896.63        68.06567
897.02        68.61301
897.42        68.48378
897.82        67.64223
898.22        66.31063
898.62        64.88684
899.01        63.95241
899.41        63.67696
899.81        63.88022
900.21         64.3988
900.61         64.9483
901.00        65.39171
901.40        65.79076
901.80        66.07674
902.20        66.13419
902.59        65.97027
902.99        65.59594
903.39        65.12808
903.79        64.78815
904.18        64.63329
904.58        64.60693
904.98        64.71294
905.38        64.94634
905.77        65.28144
906.17        65.75607
906.57        66.17193
906.96        66.19757
907.36        65.77279
907.76        64.99628
908.15        64.26485
908.55         64.1993
908.95        64.92092
909.34        66.23815
909.74        67.63664
910.14        68.34078
910.53        68.11187
910.93         67.2206
911.33        66.01133
911.72        65.01276
912.12          64.465
912.52        64.21242
912.91        64.16225
913.31        64.19283
913.70        64.25232
914.10        64.37717
914.49         64.6235
914.89        64.97303
915.29        65.41857
915.68        65.92147
916.08        66.31228
916.47          66.409
916.87        66.18845
917.26        65.68304
917.66        65.14046
918.05        64.80397
918.45        64.74519
918.84        64.95906
919.24        65.24214
919.64        65.36058
920.03        65.27354
920.42        65.03078
920.82        64.87608
921.21        65.13678
921.61        65.84185
922.00         66.8851
922.40        67.94263
922.79        68.58592
923.19        68.63602
923.58        68.26026
923.98        67.64931
924.37        67.02206
924.77        66.49577
925.16        65.97743
925.55        65.56767
925.95        65.42313
926.34         65.5724
926.74        65.96257
927.13        66.36346
927.52        66.31992
927.92        65.80072
928.31        64.94673
928.70        64.04836
929.10        63.52797
929.49        63.48046
929.89        63.71841
930.28        64.21928
930.67        64.82993
931.07        65.42098
931.46        66.10403
931.85        66.60464
932.24        66.52436
932.64        65.86785
933.03        64.72438
933.42         63.6081
933.82        63.27679
934.21        63.87553
934.60        65.24062
934.99        66.85195
935.39        67.74848
935.78        67.68876
936.17        66.86278
936.56        65.77886
936.96        65.24512
937.35        65.45667
937.74        66.13914
938.13        66.86211
938.53          66.977
938.92        66.35092
939.31        65.28445
939.70        64.12453
940.09        63.32952
940.49         63.0033
940.88        63.01896
941.27        63.31926
941.66        63.79096
942.05        64.35007
942.44        65.04572
942.84        65.73271
943.23        66.16683
943.62        66.29629
944.01        66.09972
944.40        65.79993
944.79        65.80828
945.18        66.19727
945.57        66.86307
945.97        67.39765
946.36        67.20804
946.75        66.16665
947.14        64.57714
947.53        62.96865
947.92        62.07326
948.31        62.05408
948.70        62.69085
949.09        63.67857
949.48        64.48369
949.87        64.89505
950.26        65.03696
950.65        65.02133
951.04        65.04793
951.43         65.1785
951.82        65.31455
952.21        65.37743
952.60        65.27229
952.99         65.0105
953.38        64.69154
953.77        64.42213
954.16        64.34971
954.55        64.49262
954.94        64.74583
955.33        65.08791
955.72        65.47816
956.11        65.85161
956.50        66.23659
956.89        66.36343
957.28        65.79789
957.66        64.53589
958.05        62.82296
958.44        61.22767
958.83         60.5538
959.22        60.94039
959.61        62.15995
960.00        63.74619
960.39        64.79802
960.78        64.96962
961.16        64.47331
961.55        63.68256
961.94        63.08679
962.33        62.84234
962.72        62.83228
963.11        62.87944
963.49        62.72214
963.88        62.24411
964.27        61.59083
964.66        61.12597
965.04        61.37354
965.43        62.35832
965.82          63.973
966.21         65.6273
966.60        66.17437
966.98        65.28128
967.37        63.40753
967.76        61.38527
968.15        60.27562
968.53        60.29189
968.92        61.16203
969.31        62.41401
969.69         63.1026
970.08        62.83907
970.47        61.97158
970.86        61.07276
971.24        60.94245
971.63        61.74071
972.02        63.19374
972.40        64.83431
972.79        65.51281
973.17        64.94218
973.56         63.5535
973.95         61.9295
974.33        60.78179
974.72        60.30228
975.11        60.26675
975.49        60.59292
975.88        61.06566
976.26         61.6073
976.65        62.23222
977.04         62.8672
977.42        63.35229
977.81        63.61706
978.19         63.6496
978.58        63.60918
978.96        63.75412
979.35        64.11834
979.74        64.64345
980.12        65.24059
980.51        65.52088
980.89        65.49799
981.28        65.25394
981.66        64.94721
982.05        64.76346
982.43        64.76908
982.82        64.88757
983.20        65.18005
983.59        65.65337
983.97        66.34544
984.35        67.19973
984.74        67.92734
985.12        68.28829
985.51        68.14202
985.89        67.58773
986.28        66.89705
986.66         66.4034
987.04        66.25971
987.43        66.33947
987.81        66.53811
988.20        66.53769
988.58        66.27669
988.96         65.7953
989.35        65.23517
989.73        64.77889
990.12        64.44171
990.50        64.19363
990.88        63.85247
991.27        63.15054
991.65        62.10788
992.03        60.90454
992.42        59.88873
992.80        59.47586
993.18         59.7654
993.56        60.64389
993.95        61.82247
994.33        62.90514
994.71        63.58379
995.10        64.02007
995.48        64.29834
995.86        64.70983
996.24        65.33427
996.63        65.86226
997.01        66.43732
997.39        67.02712
997.77        67.50456
998.15        67.94943
998.54        67.91892
998.92        66.60962
999.30        64.14688
999.68        60.95522
1000.06        58.04341
1000.45        56.76507
1000.83        57.50076
1001.21        59.98323
1001.59        63.54226
1001.97        66.39847
1002.35        67.68641
1002.73        67.79258
1003.12        67.43343
1003.50        67.54678
1003.88        68.47973
1004.26        69.73777
1004.64        71.06485
1005.02        71.96762
1005.40        72.17253
1005.78        72.07925
1006.16        71.37306
1006.54        69.47062
1006.92        66.59258
1007.30        63.10303
1007.69        60.27582
1008.07         59.7453
1008.45        61.97006
1008.83        66.60857
1009.21        72.50568
1009.59        76.61689
1009.97         77.3202
1010.35        75.30401
1010.73        71.63898
1011.11        68.02118
1011.49        65.17727
1011.86        62.78563
1012.24        61.00893
1012.62        59.99236
1013.00        59.66883
1013.38        60.09191
1013.76        61.16264
1014.14        62.38275
1014.52        63.38923
1014.90        64.13361
1015.28        64.44498
1015.66        64.24191
1016.04        63.58429
1016.41         62.4763
1016.79        61.22569
1017.17        60.52324
1017.55        60.56791
1017.93        61.18139
1018.31        62.06277
1018.69        62.73811
1019.06         63.1288
1019.44        63.43931
1019.82        63.65226
1020.20        63.73605
1020.58        63.64357
1020.95        63.11134
1021.33        62.69776
1021.71        63.02142
1022.09        64.18996
1022.46        66.44465
1022.84        68.64203
1023.22        68.18084
1023.60        64.43021
1023.97        58.28154
1024.35        52.87498
1024.73        51.69536
